time,f1,b1,f2,b2,f3,b3,f1p,f2p,f3p,f0,intensity,harmonicity
0.026000,798.2,126.2,1746.8,427.2,2681.8,396.3,807.3,1591.7,2725.5,273.3,69.7,12.7
0.028000,808.0,118.8,1719.5,540.5,2696.8,420.2,807.7,1584,2724.5,273.2,70,13.5
0.030000,814.0,120.0,1649.7,702.3,2715.0,365.6,808.4,1571.5,2722.8,273.2,70.3,14.2
0.032000,814.6,131.1,1506.2,848.6,2724.7,279.5,809.5,1555.3,2720.5,273.2,70.7,14.8
0.034000,810.1,138.2,1380.1,765.2,2730.7,215.6,811,1536.3,2717.6,273.2,71,15.4
0.036000,808.4,132.7,1373.9,615.8,2734.5,189.7,812.9,1515.8,2714.2,273.1,71.3,16.2
0.038000,812.0,125.4,1398.7,509.4,2735.2,189.7,815.3,1494.9,2710.3,273.1,71.5,17
0.040000,818.1,121.2,1418.1,446.1,2732.2,209.3,818.3,1475.2,2706.2,273.1,71.7,17.9
0.042000,825.0,118.8,1430.7,404.1,2724.3,248.1,821.8,1457.6,2701.8,273.2,71.9,18.8
0.044000,830.6,117.5,1438.3,373.4,2712.5,297.5,825.8,1443.3,2697.4,273.2,72,19.5
0.046000,835.0,116.4,1445.6,342.1,2697.9,339.6,830.3,1433.1,2693,273.2,72.1,20
0.048000,838.1,115.2,1453.2,312.7,2684.8,335.4,835.2,1427.3,2689,273.3,72.2,20.3
0.050000,840.7,114.2,1460.8,289.7,2675.7,293.3,840.4,1426.4,2685.3,273.4,72.3,20.4
0.052000,843.6,114.3,1468.1,275.8,2672.7,264.7,845.8,1430,2682.2,273.5,72.4,20.5
0.054000,848.4,115.7,1478.2,262.1,2674.3,270.1,851.3,1437.8,2679.8,273.6,72.4,20.6
0.056000,854.5,118.5,1489.2,247.4,2677.5,313.2,856.7,1449.2,2678.2,273.7,72.5,20.8
0.058000,860.9,122.4,1498.0,235.6,2675.5,392.9,861.8,1463.3,2677.4,273.8,72.6,20.9
0.060000,865.3,125.9,1501.5,231.1,2663.3,456.7,866.5,1479.3,2677.5,274,72.6,21
0.062000,868.5,127.6,1503.5,226.9,2655.1,437.2,870.6,1495.9,2678.3,274.1,72.7,21.1
0.064000,871.8,127.5,1509.0,218.8,2662.1,362.0,874.1,1512.5,2679.9,274.3,72.7,21.1
0.066000,875.3,126.6,1518.3,207.5,2675.2,290.0,876.9,1528,2682,274.5,72.6,21.1
0.068000,878.0,125.4,1527.9,196.1,2685.0,243.9,878.9,1541.9,2684.4,274.7,72.6,21.1
0.070000,880.1,124.0,1536.3,185.4,2689.9,214.1,880.1,1553.6,2686.9,274.9,72.6,21.1
0.072000,881.4,122.2,1541.8,177.6,2690.9,196.3,880.5,1562.9,2689.2,275.1,72.5,21
0.074000,882.2,120.1,1546.0,171.6,2691.3,185.4,880.2,1569.7,2691,275.3,72.4,21
0.076000,882.2,118.6,1550.3,168.8,2693.5,183.8,879.4,1574.4,2692,275.6,72.4,21.1
0.078000,881.3,118.6,1555.9,170.7,2698.6,193.6,878,1577.2,2692,275.8,72.3,21.3
0.080000,879.2,120.1,1561.9,176.9,2705.6,209.4,876.2,1578.6,2690.7,276,72.2,21.5
0.082000,876.3,121.2,1568.1,183.7,2712.1,219.4,874.2,1579.2,2688,276.2,72.1,21.8
0.084000,873.2,120.1,1576.3,185.7,2713.8,215.0,871.9,1579.4,2683.9,276.4,71.9,21.9
0.086000,870.2,116.7,1586.5,181.1,2707.1,202.4,869.6,1579.8,2678.2,276.6,71.8,21.9
0.088000,866.4,112.3,1597.1,173.4,2690.7,190.4,867.1,1580.8,2671.2,276.8,71.7,21.7
0.090000,862.5,108.1,1603.6,166.8,2666.3,182.1,864.6,1582.4,2663.1,277,71.6,21.5
0.092000,858.7,104.0,1605.6,161.9,2635.5,174.9,862,1584.6,2654.1,277.1,71.5,21.3
0.094000,855.5,100.8,1604.8,160.7,2608.0,172.6,859.3,1587.3,2644.5,277.3,71.4,21.1
0.096000,852.6,98.9,1603.8,162.4,2588.7,178.1,856.4,1590,2634.8,277.4,71.3,21
0.098000,850.1,98.2,1603.6,163.9,2584.2,185.5,853.1,1592.2,2625.5,277.5,71.2,21.2
0.100000,847.8,99.0,1602.8,165.5,2593.2,185.4,849.4,1593.2,2616.9,277.5,71,21.3
0.102000,845.0,102.1,1599.3,170.8,2605.1,176.7,845.2,1592.2,2609.5,277.5,70.9,21.5
0.104000,841.0,108.8,1591.7,182.6,2611.9,168.1,840.3,1588.7,2603.6,277.5,70.8,21.5
0.106000,836.2,118.1,1580.2,196.0,2613.6,164.0,834.7,1581.9,2599.5,277.5,70.6,21.4
0.108000,830.8,129.1,1564.3,204.1,2614.5,159.1,828.4,1571.6,2597.5,277.4,70.4,21.3
0.110000,825.7,139.6,1545.7,203.6,2616.2,150.5,821.4,1557.3,2597.6,277.3,70.2,21
0.112000,819.7,150.7,1522.6,198.7,2618.0,142.8,813.8,1539.2,2599.8,277.2,70,20.7
0.114000,812.4,162.0,1498.0,192.8,2619.8,141.5,805.6,1517.6,2603.9,277,69.7,20.2
0.116000,803.0,174.4,1471.8,185.7,2622.4,147.2,797,1493,2609.7,276.9,69.4,19.4
0.118000,792.0,186.8,1447.9,177.4,2625.9,156.4,788.3,1466.2,2616.9,276.6,68.9,18.5
0.120000,778.7,200.3,1425.3,167.1,2629.7,164.9,779.8,1438.4,2624.8,276.4,68.3,17.3
0.122000,764.8,214.8,1405.9,156.4,2633.4,167.1,771.5,1410.7,2633.2,276.2,67.5,16.1
0.124000,750.3,234.5,1387.9,145.7,2638.6,156.9,764,1384.3,2641.4,275.9,66.6,15
0.126000,737.3,263.3,1371.9,137.6,2645.1,131.7,757.4,1360.7,2648.9,275.6,65.5,14
0.128000,727.4,312.3,1356.4,133.7,2650.9,99.1,751.9,1340.9,2655.3,275.3,64.3,13
0.130000,729.1,383.6,1342.7,135.3,2653.4,74.2,747.9,1325.9,2660.2,275,63,11.9
0.132000,754.9,465.4,1329.6,142.0,2653.3,58.2,745.4,1316.6,2663.3,274.7,61.7,11
0.134000,798.5,520.4,1313.1,153.8,2651.1,50.2,744.6,1313.4,2664.3,274.3,60.5,10.5
