time,f1,b1,f2,b2,f3,b3,f1p,f2p,f3p,f0,intensity,harmonicity
0.026000,383.8,49.8,1703.5,340.8,2738.4,285.8,386.6,2090.9,2903.2,195.8,55.9,15.4
0.028000,386.3,44.0,1787.6,374.4,2828.2,229.3,386.7,2107.6,2911.1,196,56.1,15.3
0.030000,387.4,41.0,1911.8,496.5,2906.2,205.4,386.9,2134.8,2924.1,196.3,56.2,15.7
0.032000,387.7,36.7,2085.2,672.4,2969.0,212.3,387.3,2171.7,2941.8,196.6,56.3,16.4
0.034000,387.8,30.4,2292.7,808.1,3024.2,234.3,387.7,2217.1,2963.9,196.9,56.4,17.2
0.036000,388.0,25.9,2452.9,850.2,3070.0,256.5,388.3,2269.7,2989.9,197.2,56.5,17.9
0.038000,388.7,24.3,2536.1,874.3,3104.8,275.2,389,2327.9,3019.2,197.5,56.5,18.9
0.040000,389.7,24.4,2576.7,932.8,3130.9,298.9,389.7,2389.9,3051.1,197.9,56.5,20
0.042000,391.0,25.2,2607.9,1021.0,3145.1,333.6,390.6,2453.9,3085,198.3,56.5,21
0.044000,392.3,26.0,2657.1,1101.2,3143.7,377.2,391.7,2518.1,3120.2,198.8,56.4,21.9
0.046000,393.6,26.4,2733.5,1139.5,3130.5,429.4,392.8,2580.7,3155.9,199.3,56.4,22.3
0.048000,395.0,26.8,2817.6,1106.7,3119.6,496.0,394.1,2640.1,3191.5,199.8,56.4,22.5
0.050000,396.4,27.4,2884.3,995.4,3129.2,596.7,395.5,2694.6,3226.4,200.3,56.3,22.4
0.052000,397.9,28.5,2899.3,830.8,3205.6,723.4,397,2743.1,3259.9,200.9,56.3,22.2
0.054000,399.5,30.0,2884.5,763.9,3323.9,729.1,398.6,2784.5,3291.5,201.5,56.3,21.8
0.056000,401.0,31.0,2862.3,795.6,3387.7,629.3,400.3,2818.1,3320.9,202.2,56.3,21.3
0.058000,402.4,30.7,2797.7,860.9,3395.5,499.8,402,2843.3,3347.6,202.9,56.3,20.6
0.060000,403.7,29.8,2730.4,855.0,3399.3,415.0,403.9,2860.2,3371.4,203.6,56.3,19.7
0.062000,405.2,29.1,2693.6,812.5,3404.5,382.9,405.7,2868.8,3392.1,204.3,56.3,18.7
0.064000,406.7,29.0,2683.4,778.7,3405.5,391.7,407.6,2869.6,3409.8,205.1,56.3,17.8
0.066000,408.4,29.4,2689.3,770.3,3402.7,426.1,409.4,2863.4,3424.4,205.9,56.3,17
0.068000,410.4,30.5,2704.7,781.6,3402.1,472.4,411.2,2851.1,3436,206.7,56.3,16.3
0.070000,412.4,31.8,2721.0,796.7,3413.2,507.1,413,2833.9,3444.9,207.6,56.3,15.5
0.072000,414.4,33.1,2729.4,808.2,3437.1,506.0,414.7,2812.9,3451.3,208.5,56.3,14.9
0.074000,416.3,33.7,2715.0,831.9,3452.2,457.0,416.3,2789.6,3455.5,209.4,56.3,14.4
0.076000,418.0,33.5,2694.8,857.5,3452.9,398.0,417.8,2765.3,3457.9,210.3,56.3,14.3
0.078000,419.5,33.6,2709.9,873.2,3454.0,368.1,419.3,2741.2,3458.8,211.3,56.3,14.5
0.080000,420.7,33.8,2748.7,878.2,3455.0,357.1,420.6,2718.6,3458.5,212.2,56.3,14.8
0.082000,421.7,33.9,2782.2,867.5,3456.9,348.7,421.8,2698.6,3457.4,213.2,56.3,15.3
0.084000,422.6,33.7,2791.3,839.1,3459.9,335.3,422.8,2682,3455.8,214.2,56.3,15.6
0.086000,423.5,33.5,2775.4,792.2,3461.6,318.4,423.8,2669.6,3454,215.2,56.3,15.8
0.088000,424.3,33.2,2748.0,737.7,3458.9,307.7,424.7,2661.7,3452.2,216.2,56.3,15.9
0.090000,425.1,32.8,2724.5,685.2,3451.1,309.0,425.5,2658.7,3450.7,217.2,56.4,15.9
0.092000,425.8,32.3,2707.4,628.9,3438.6,318.9,426.3,2660.4,3449.5,218.2,56.4,15.9
0.094000,426.6,31.6,2698.6,573.0,3427.8,327.2,427,2666.6,3448.6,219.3,56.4,15.9
0.096000,427.3,31.0,2695.3,526.8,3425.5,323.8,427.7,2676.9,3448.2,220.3,56.4,15.8
0.098000,428.2,30.7,2696.8,493.5,3433.7,307.7,428.4,2690.5,3448.2,221.3,56.4,15.7
0.100000,429.1,31.1,2706.2,477.5,3448.8,288.0,429.1,2706.7,3448.5,222.4,56.4,15.5
0.102000,430.2,32.4,2726.4,476.3,3465.9,273.7,429.8,2724.6,3448.9,223.4,56.4,15.4
0.104000,431.5,34.3,2757.9,480.4,3481.9,265.9,430.6,2743.2,3449.4,224.4,56.3,15.2
0.106000,432.7,36.1,2787.7,478.3,3491.0,262.5,431.5,2761.5,3449.7,225.5,56.3,15.1
0.108000,433.9,37.4,2809.9,465.6,3494.9,261.0,432.5,2778.6,3449.7,226.5,56.3,15
0.110000,434.9,38.5,2821.8,445.5,3495.8,259.8,433.5,2793.4,3449.2,227.5,56.3,14.9
0.112000,435.7,39.0,2823.2,432.1,3491.7,262.4,434.6,2805.4,3448,228.5,56.2,14.8
0.114000,436.6,39.1,2817.5,440.3,3479.4,276.1,435.8,2813.9,3446,229.6,56.2,14.7
0.116000,437.7,39.3,2810.2,480.1,3457.1,302.5,437.1,2818.3,3443,230.6,56.2,14.6
0.118000,438.9,39.9,2797.4,545.0,3422.1,325.8,438.4,2818.4,3439,231.6,56.1,14.3
0.120000,440.0,40.8,2773.4,607.3,3382.9,324.1,439.8,2814.1,3433.9,232.6,56.1,14
0.122000,441.1,41.8,2745.4,625.5,3359.9,303.4,441.1,2805.6,3427.7,233.5,56.1,13.8
0.124000,441.9,42.7,2721.4,598.7,3353.4,281.6,442.5,2793.1,3420.4,234.5,56.1,13.7
0.126000,442.7,43.1,2698.9,544.7,3353.5,263.0,443.8,2777.1,3412.2,235.5,56.1,13.7
0.128000,443.4,43.5,2677.5,483.3,3354.7,249.3,445,2758.2,3403,236.4,56.1,13.9
0.130000,444.2,44.2,2660.7,433.3,3357.3,240.7,446.2,2737.1,3393,237.3,56.2,14.3
0.132000,445.2,45.7,2649.2,400.8,3363.9,233.2,447.2,2714.7,3382.5,238.3,56.2,14.7
0.134000,446.3,47.4,2640.9,384.5,3371.4,220.0,448.1,2691.6,3371.5,239.1,56.2,15
0.136000,447.3,48.8,2635.2,375.9,3375.2,203.7,448.8,2668.8,3360.3,240,56.3,15.4
0.138000,448.3,50.6,2636.7,367.2,3376.2,193.4,449.4,2647.1,3349,240.9,56.3,15.8
0.140000,449.0,53.2,2644.6,354.0,3375.3,194.7,449.7,2627.2,3337.8,241.7,56.4,16.2
0.142000,449.4,56.5,2654.1,338.6,3373.2,206.4,449.9,2609.6,3327,242.5,56.4,16.6
0.144000,449.7,60.5,2664.1,325.7,3369.5,228.3,449.8,2594.9,3316.7,243.3,56.5,16.8
0.146000,450.0,64.6,2673.7,319.5,3363.6,258.5,449.6,2583.4,3306.9,244,56.5,16.7
0.148000,450.1,68.4,2681.6,321.1,3350.3,297.2,449.2,2575.2,3297.8,244.8,56.6,16.3
0.150000,449.8,71.5,2685.8,334.8,3325.8,338.2,448.6,2570.4,3289.6,245.5,56.6,15.7
0.152000,449.3,74.3,2685.3,365.2,3291.9,368.5,447.9,2568.9,3282.2,246.1,56.6,15.1
0.154000,448.8,76.5,2673.0,414.4,3251.7,363.8,447.1,2570.3,3275.6,246.8,56.6,14.8
0.156000,448.7,79.0,2647.7,467.2,3225.3,320.6,446.3,2574.2,3269.9,247.4,56.6,15
0.158000,448.9,82.2,2617.8,506.8,3219.1,266.7,445.4,2580.1,3265.1,247.9,56.6,15.7
0.160000,449.1,86.6,2587.8,539.9,3223.2,217.2,444.5,2587.3,3261,248.5,56.6,16.7
0.162000,448.7,92.7,2562.4,575.6,3229.0,182.8,443.6,2595.3,3257.7,249,56.6,17.7
0.164000,447.4,100.7,2544.6,609.0,3233.4,166.0,442.8,2603.5,3255,249.4,56.5,18.3
0.166000,444.6,111.3,2537.5,625.5,3237.3,165.1,442.1,2611.1,3252.9,249.9,56.3,18.2
0.168000,440.5,125.4,2544.8,610.5,3243.7,178.7,441.5,2617.6,3251.4,250.3,56.1,17.7
0.170000,436.1,144.2,2561.0,562.5,3255.1,199.9,441.1,2622.7,3250.4,250.7,55.7,16.8
0.172000,433.1,169.5,2573.3,486.2,3271.6,222.2,440.8,2625.8,3249.7,251,55.2,15.7
0.174000,433.7,199.1,2574.1,410.3,3288.8,247.2,440.7,2626.9,3249.5,251.3,54.4,14.6
