time,f1,b1,f2,b2,f3,b3,f1p,f2p,f3p,f0,intensity,harmonicity
0.025011,794.5,147.7,1683.3,225.6,2499.9,503.5,799,1678.9,2486.2,247.9,63.4,10
0.027011,796.6,143.9,1677.7,217.1,2503.0,448.6,799.2,1676,2492.7,247.8,63.5,10.5
0.029011,799.0,142.4,1671.3,219.1,2505.9,414.3,799.8,1671.4,2503.4,247.6,63.6,11.4
0.031011,801.0,145.0,1663.1,231.1,2514.5,396.7,800.6,1665.2,2517.9,247.5,63.7,12.5
0.033011,802.6,150.9,1653.2,251.3,2533.4,388.0,801.8,1657.6,2535.6,247.3,63.8,13.7
0.035011,805.0,154.9,1644.2,269.4,2554.5,380.9,803.5,1649,2556.2,247.2,63.9,14.7
0.037011,808.9,155.9,1636.3,279.3,2572.2,374.3,805.7,1639.6,2578.9,247,63.9,15.7
0.039011,812.2,157.8,1629.3,284.7,2588.7,374.0,808.6,1629.7,2603.2,246.9,64,16.7
0.041011,814.2,163.2,1620.6,293.8,2613.6,381.5,812.1,1619.8,2628.5,246.7,64,17.7
0.043011,816.7,168.9,1611.2,304.6,2646.4,387.8,816.3,1610,2654.1,246.6,64,18.5
0.045011,821.4,171.5,1602.9,310.0,2680.0,384.0,821.2,1600.6,2679.7,246.5,63.9,18.9
0.047011,826.4,172.2,1596.7,307.9,2705.2,377.6,826.7,1591.8,2704.8,246.3,63.9,19
0.049011,830.9,175.2,1588.9,302.3,2728.2,379.1,832.7,1583.8,2729,246.2,63.8,18.7
0.051011,836.1,180.7,1579.7,294.8,2754.8,385.5,839.1,1576.7,2752.2,246.1,63.7,18.3
0.053011,844.5,185.8,1572.0,282.6,2787.4,376.1,845.7,1570.6,2774.3,246,63.6,17.7
0.055011,853.5,189.6,1567.1,268.6,2814.3,348.4,852.3,1565.3,2795.3,246,63.4,17.2
0.057011,861.2,195.6,1562.0,257.8,2832.6,321.9,858.7,1560.9,2815.2,245.9,63.3,16.4
0.059011,867.9,205.9,1554.8,253.5,2842.9,311.1,864.8,1557.2,2834.1,245.8,63.1,15.5
0.061011,873.2,215.8,1548.4,255.3,2846.1,320.4,870.3,1554.2,2852.2,245.8,62.9,14.5
0.063011,876.2,221.2,1545.0,258.0,2851.4,342.6,875.1,1551.6,2869.7,245.8,62.7,13.8
0.065011,876.0,222.5,1544.0,257.6,2869.0,362.5,879,1549.3,2886.7,245.8,62.7,13.7
0.067011,875.8,221.3,1543.8,255.0,2897.4,372.4,882.1,1547.3,2903.3,245.8,62.7,14.4
0.069011,878.5,217.8,1544.1,252.2,2921.1,374.9,884.4,1545.3,2919.5,245.8,62.7,15.7
0.071011,882.4,213.5,1544.5,247.9,2939.0,379.4,885.7,1543.3,2935.5,245.8,62.8,17.3
0.073011,884.4,211.3,1543.8,242.2,2955.2,387.1,886.3,1541.3,2951,245.8,62.9,18.8
0.075011,884.8,211.4,1541.4,237.6,2972.5,393.0,886.2,1539.2,2965.9,245.9,62.9,20
0.077011,885.9,212.0,1538.5,236.3,2984.6,391.4,885.6,1536.9,2980.1,245.9,62.9,20.7
0.079011,888.5,212.3,1536.5,235.3,2991.3,389.3,884.7,1534.5,2993.4,246,62.9,21.3
0.081011,890.0,214.1,1535.1,233.6,2997.3,397.6,883.5,1532.1,3005.5,246,62.9,21.7
0.083011,888.6,218.7,1532.8,236.1,3007.6,415.1,882.3,1529.6,3016.1,246.1,62.9,22
0.085011,885.5,222.5,1529.4,245.9,3020.2,424.8,881.1,1527.1,3025,246.2,62.9,22.1
0.087011,883.0,222.7,1526.2,256.3,3032.0,425.1,880.1,1524.6,3032.1,246.3,62.9,22.2
0.089011,881.0,220.8,1524.1,258.1,3040.6,430.7,879.2,1522,3037.3,246.3,62.9,22.1
0.091011,878.1,217.7,1521.8,254.2,3047.6,451.1,878.5,1519.5,3040.5,246.4,63,21.9
0.093011,875.5,212.7,1518.6,252.2,3051.8,471.5,877.8,1517,3041.8,246.5,63,21.5
0.095011,874.9,206.6,1514.3,252.1,3050.5,474.7,877.1,1514.3,3041.3,246.6,63,20.6
0.097011,874.7,203.8,1508.7,250.9,3044.4,468.4,876.2,1511.4,3039.2,246.7,63.1,19
0.099011,872.8,206.4,1501.0,249.1,3034.6,469.4,875,1508.2,3035.8,246.7,63.1,16.8
0.101011,869.1,211.2,1493.8,249.7,3022.3,485.6,873.2,1504.7,3031.5,246.8,63.1,14.5
0.103011,865.0,212.2,1489.9,255.0,3012.3,514.1,870.7,1500.7,3026.6,246.9,63.1,12.5
0.105011,862.1,206.4,1490.0,262.2,3012.0,539.1,867.3,1496.1,3021.5,246.9,63.2,11.2
0.107011,859.6,197.1,1491.9,265.1,3017.3,545.7,862.9,1491,3016.5,247,63.2,11
0.109011,855.7,185.5,1492.6,258.2,3019.2,526.2,857.4,1485.2,3012,247.1,63.3,11.5
0.111011,850.0,170.6,1488.8,242.7,3015.2,488.0,850.9,1478.7,3008.2,247.1,63.5,12.3
0.113011,843.7,153.0,1479.0,227.4,3010.5,443.8,843.4,1471.8,3005.2,247.1,63.6,13.1
0.115011,838.7,140.3,1468.3,219.9,3006.8,413.4,834.9,1464.3,3003.3,247.2,63.7,13.4
0.117011,833.5,133.1,1459.5,216.4,3002.2,397.3,825.9,1456.6,3002.4,247.2,63.8,13.1
0.119011,826.4,130.2,1452.6,214.9,2998.2,392.9,816.4,1448.8,3002.5,247.2,63.8,12.4
0.121011,815.8,129.2,1444.6,215.1,2996.2,396.6,806.9,1441.1,3003.4,247.2,63.7,11.6
0.123011,803.5,128.6,1434.8,217.2,2997.7,405.2,797.6,1433.7,3004.8,247.2,63.5,10.9
0.125011,790.8,128.0,1423.2,220.9,3002.6,415.2,789,1427,3006.7,247.2,63.2,10.6
0.127011,780.7,129.1,1412.5,225.9,3010.0,423.3,781.4,1421,3008.6,247.2,62.8,10.8
0.129011,772.9,134.6,1404.3,235.1,3019.8,432.0,775.1,1416.2,3010.5,247.2,62.2,11.4
0.131011,767.4,147.2,1401.7,254.1,3025.9,450.4,770.4,1412.6,3012,247.2,61.4,12.1
0.133011,762.0,174.6,1408.4,304.3,3018.9,508.5,767.5,1410.3,3012.9,247.2,60.5,12.5
0.135011,756.4,221.8,1429.9,401.7,2996.2,623.6,766.5,1409.6,3013.2,247.2,59.4,12.4
