time,f1,b1,f2,b2,f3,b3,f1p,f2p,f3p,f0,intensity,harmonicity
0.025011,425.4,25.5,1180.0,148.5,2369.9,245.7,532.7,1130.8,2545.4,151.2,79.4,16.5
0.027011,427.4,23.0,1169.0,143.7,2383.1,209.4,532.5,1130.7,2545.1,151.4,79.5,17.7
0.029011,428.9,21.8,1160.5,138.2,2391.3,179.9,532.1,1130.5,2544.5,151.6,79.6,18.8
0.031011,430.0,21.8,1158.8,129.0,2398.3,154.6,531.6,1130.2,2543.8,151.8,79.7,19.8
0.033011,431.1,21.8,1162.6,114.4,2406.2,129.2,531,1129.9,2542.8,152.1,79.7,20.6
0.035011,432.1,21.7,1167.2,99.1,2414.5,108.5,530.2,1129.5,2541.6,152.3,79.7,21.1
0.037011,433.0,21.3,1169.2,86.3,2422.2,93.5,529.3,1129,2540.1,152.6,79.8,21.1
0.039011,433.9,20.9,1167.5,80.1,2428.1,85.2,528.3,1128.4,2538.5,152.9,79.8,20.7
0.041011,434.9,21.2,1163.5,83.5,2433.4,83.7,527.1,1127.8,2536.7,153.1,79.8,20.1
0.043011,436.0,23.0,1157.6,101.2,2439.1,92.2,525.8,1127.1,2534.6,153.4,79.7,19.6
0.045011,437.1,26.7,1149.7,135.2,2442.0,118.1,524.4,1126.3,2532.3,153.7,79.7,19.3
0.047011,438.4,32.4,1141.7,173.5,2436.4,163.3,522.9,1125.5,2529.9,154,79.7,19.3
0.049011,439.7,39.2,1133.0,194.5,2417.5,220.6,521.2,1124.6,2527.2,154.3,79.6,19.5
0.051011,439.9,43.4,1122.7,184.5,2395.7,258.0,519.4,1123.7,2524.4,154.6,79.6,19.8
0.053011,439.2,44.2,1110.9,159.2,2388.7,259.1,517.5,1122.7,2521.4,154.9,79.5,20
0.055011,438.0,43.0,1097.7,134.2,2393.1,239.7,515.6,1121.7,2518.2,155.2,79.4,20.2
0.057011,436.7,40.6,1083.9,110.7,2398.2,216.0,513.5,1120.7,2514.8,155.5,79.4,20.3
0.059011,435.4,37.7,1074.2,90.5,2401.0,197.5,511.3,1119.6,2511.3,155.8,79.3,20.5
0.061011,434.2,35.9,1069.7,75.7,2404.0,185.6,509,1118.5,2507.6,156.1,79.2,20.6
0.063011,433.2,35.5,1068.2,65.7,2408.0,176.2,506.7,1117.3,2503.7,156.4,79.2,20.7
0.065011,432.2,36.0,1067.8,60.9,2411.8,168.3,504.3,1116.2,2499.7,156.7,79.1,20.7
0.067011,431.1,36.6,1067.5,60.7,2414.6,164.3,501.8,1115,2495.6,157,79,20.7
0.069011,429.9,37.2,1066.1,64.8,2416.4,165.3,499.2,1113.8,2491.3,157.3,78.9,20.6
0.071011,428.4,37.6,1061.7,72.3,2416.2,168.3,496.6,1112.6,2486.9,157.5,78.8,20.4
0.073011,426.6,38.2,1053.7,83.7,2413.8,164.9,494,1111.5,2482.4,157.8,78.7,20.4
0.075011,424.8,39.6,1042.6,100.5,2410.7,147.5,491.3,1110.3,2477.8,158.1,78.6,20.5
0.077011,423.1,42.2,1026.5,123.7,2407.9,117.8,488.6,1109.2,2473.1,158.3,78.5,20.8
0.079011,421.4,46.2,1008.1,143.7,2405.8,89.7,485.8,1108.1,2468.3,158.6,78.4,21.2
0.081011,419.9,49.4,995.2,148.3,2403.5,71.1,483,1107,2463.4,158.8,78.4,21.7
0.083011,418.8,49.9,989.7,140.4,2400.7,59.1,480.2,1106,2458.4,159,78.3,22.2
0.085011,418.1,48.1,988.6,130.7,2398.5,52.2,477.5,1105,2453.4,159.3,78.3,22.6
0.087011,418.1,45.6,988.4,125.0,2397.6,48.8,474.7,1104.1,2448.3,159.5,78.3,23
0.089011,419.3,42.8,989.1,122.3,2397.7,47.9,471.9,1103.2,2443.2,159.6,78.3,23.5
0.091011,421.4,40.8,990.3,124.9,2398.5,49.3,469.2,1102.4,2438.1,159.8,78.3,23.9
0.093011,424.0,40.7,990.6,137.5,2399.7,53.2,466.4,1101.7,2432.9,160,78.3,24.1
0.095011,427.0,41.5,989.7,161.3,2401.4,60.5,463.8,1101,2427.7,160.1,78.3,24
0.097011,430.0,41.6,988.0,186.3,2403.6,70.5,461.1,1100.5,2422.5,160.3,78.3,23.4
0.099011,433.3,40.5,986.3,201.1,2407.6,81.1,458.5,1100,2417.3,160.4,78.3,22.5
0.101011,437.4,37.8,985.4,201.5,2413.3,88.2,456,1099.7,2412.1,160.5,78.3,21.4
0.103011,442.6,33.9,984.7,193.6,2418.4,89.9,453.6,1099.5,2407,160.5,78.4,20.2
0.105011,448.5,30.0,985.6,187.1,2421.0,88.3,451.2,1099.4,2401.9,160.5,78.5,19.3
0.107011,454.4,26.5,993.4,181.5,2422.6,87.8,449,1099.4,2396.8,160.5,78.6,18.5
0.109011,460.6,22.7,1014.2,166.9,2425.6,89.9,446.8,1099.5,2391.8,160.5,78.7,17.9
0.111011,467.1,19.0,1043.3,140.7,2431.1,94.5,444.7,1099.8,2386.8,160.5,79,17.2
0.113011,473.2,16.1,1069.9,111.6,2439.2,100.1,442.8,1100.3,2382,160.4,79.2,16.6
0.115011,478.8,13.6,1092.5,83.0,2449.9,109.2,440.9,1100.9,2377.2,160.2,79.5,16
0.117011,483.4,11.8,1109.2,60.6,2462.8,129.2,439.2,1101.7,2372.5,160.1,79.8,15.5
0.119011,487.1,10.9,1119.9,46.1,2479.1,175.3,437.7,1102.6,2367.9,159.9,80,15.1
0.121011,489.8,10.9,1126.0,38.7,2499.3,264.0,436.3,1103.7,2363.4,159.6,80.1,14.6
0.123011,492.0,12.0,1131.2,35.6,2519.8,412.7,435,1105,2359,159.3,80.1,14
0.125011,494.9,13.9,1137.7,35.6,2518.6,520.8,433.9,1106.5,2354.8,159,79.9,13
0.127011,500.5,16.3,1146.6,37.1,2511.5,472.9,433,1108.2,2350.7,158.6,79.6,11.5
0.129011,511.2,19.2,1159.0,39.4,2517.5,346.7,432.3,1110.1,2346.8,0,79.1,9.5
0.131011,526.3,21.9,1172.7,42.3,2521.6,235.6,431.7,1112.2,2343,0,78.4,7.4
0.133011,542.3,23.2,1186.1,45.1,2520.1,164.0,431.3,1114.4,2339.4,0,77.7,5.6
0.135011,557.7,22.8,1202.4,48.9,2518.2,121.0,431.1,1117,2336,0,77,4.4
0.137011,569.4,21.2,1223.9,54.0,2521.9,102.8,431.2,1119.7,2332.8,0,76.3,4.2
0.139011,577.1,19.5,1246.9,57.8,2531.9,99.0,431.4,1122.7,2329.7,0,75.9,4.5
0.141011,582.0,18.0,1265.1,59.4,2543.1,100.8,431.9,1125.9,2326.9,0,75.5,5.2
0.143011,585.7,18.4,1275.6,64.5,2548.3,103.7,432.6,1129.3,2324.2,0,75.1,5.9
0.145011,590.4,21.9,1283.2,76.9,2546.9,103.8,433.5,1132.9,2321.8,0,74.7,6.3
0.147011,597.4,28.2,1291.9,90.2,2543.5,99.5,434.6,1136.8,2319.6,0,74.2,6.3
0.149011,607.2,33.6,1304.0,95.3,2540.6,92.8,436,1141,2317.6,0,73.8,6.2
0.151011,616.5,32.5,1319.1,88.6,2539.2,89.1,437.6,1145.4,2315.8,0,73.5,6.1
0.153011,623.0,28.0,1334.7,77.9,2540.6,95.4,439.5,1150,2314.3,0,73.5,5.9
0.155011,627.4,24.4,1346.7,68.0,2546.2,119.4,441.6,1154.9,2313,0,73.6,5.6
0.157011,629.8,22.3,1352.0,61.8,2554.9,155.8,443.9,1160,2312,0,73.7,5.3
0.159011,630.6,22.3,1354.1,60.9,2559.5,183.1,446.5,1165.4,2311.2,0,73.7,4.9
0.161011,631.2,26.6,1357.1,68.0,2554.6,190.3,449.4,1171,2310.7,0,73.5,4.5
0.163011,633.0,36.8,1362.3,83.0,2543.1,179.9,452.6,1176.9,2310.5,0,73.2,4.1
0.165011,637.1,48.9,1367.4,96.5,2532.4,165.4,456,1183.1,2310.5,0,72.8,3.8
0.167011,642.6,56.1,1370.9,102.2,2524.2,155.5,459.6,1189.5,2310.7,0,72.5,3.6
0.169011,648.8,60.7,1373.3,106.4,2515.7,155.4,463.6,1196.1,2311.3,0,72.2,3.6
0.171011,655.5,65.8,1374.2,111.3,2507.2,162.8,467.8,1203,2312.1,0,72.1,3.5
0.173011,661.4,66.7,1373.2,109.9,2501.2,166.6,472.3,1210.2,2313.2,0,72.1,3.4
0.175011,665.0,63.2,1370.6,102.3,2497.3,172.9,477,1217.6,2314.6,0,72.3,3.2
0.177011,664.3,62.5,1366.7,98.8,2497.3,213.3,482,1225.2,2316.2,0,72.5,2.5
0.179011,660.8,66.8,1362.5,101.8,2501.6,312.5,487.3,1233.1,2318.1,0,72.8,1.3
0.181011,660.5,72.8,1362.1,101.6,2494.4,407.2,492.8,1241.2,2320.3,0,73,0.2
0.183011,664.7,75.6,1363.7,100.5,2469.9,402.6,498.6,1249.6,2322.8,0,73.3,-0.3
0.185011,670.1,77.1,1365.1,103.9,2446.4,340.3,504.7,1258.2,2325.6,141.3,73.6,0.1
0.187011,676.1,79.5,1367.1,110.0,2432.1,272.1,511,1267,2328.6,141,73.9,2.1
0.189011,682.5,80.9,1370.1,113.5,2428.7,225.1,517.6,1276,2331.9,140.7,74.2,5.2
0.191011,688.3,82.9,1372.8,116.9,2429.3,198.6,524.4,1285.3,2335.5,140.5,74.4,8.8
0.193011,692.2,90.0,1374.5,122.7,2427.9,182.9,531.5,1294.8,2339.3,140.2,74.7,12
0.195011,693.1,99.7,1374.2,127.5,2426.3,178.4,538.9,1304.4,2343.5,140,74.9,14
0.197011,692.3,103.7,1373.5,123.5,2426.1,181.6,546.5,1314.3,2347.8,139.9,75.2,14.4
0.199011,694.3,104.4,1377.3,109.5,2421.5,176.3,554.3,1324.4,2352.5,139.7,75.6,13.9
0.201011,699.7,103.9,1382.8,89.6,2406.2,169.6,562.4,1334.6,2357.4,139.6,76,12.8
0.203011,705.5,99.3,1386.5,73.3,2380.8,167.9,570.6,1345.1,2362.5,139.5,76.5,11.7
0.205011,709.4,93.0,1390.2,65.8,2358.2,162.5,579.2,1355.7,2367.9,139.4,76.9,11.1
0.207011,711.2,88.4,1395.7,66.5,2347.4,153.2,587.9,1366.5,2373.6,139.3,77.3,11.1
0.209011,711.6,85.3,1400.9,70.4,2346.7,144.1,596.8,1377.4,2379.4,139.2,77.6,11.3
0.211011,710.9,82.5,1402.6,72.7,2351.5,136.3,606,1388.5,2385.5,139.1,77.8,11.7
0.213011,707.9,81.4,1399.8,75.7,2362.2,135.7,615.3,1399.7,2391.9,139.1,77.9,12.1
0.215011,702.2,82.4,1392.9,84.3,2379.9,148.0,624.9,1411,2398.4,139,77.9,12.5
0.217011,696.8,83.1,1385.4,95.3,2397.7,167.7,634.6,1422.5,2405.2,138.9,77.8,13
0.219011,694.0,82.6,1381.9,100.6,2406.8,180.5,644.5,1434,2412.1,138.9,77.8,13.5
0.221011,693.3,83.1,1381.2,99.1,2406.3,184.5,654.6,1445.7,2419.3,138.8,77.7,14.1
0.223011,694.0,82.7,1378.3,93.5,2397.8,188.8,664.8,1457.5,2426.6,138.7,77.6,14.5
0.225011,694.0,79.5,1372.3,91.5,2391.4,204.2,675.2,1469.3,2434.1,138.7,77.5,14.9
0.227011,689.2,80.9,1368.1,108.1,2408.6,225.1,685.7,1481.2,2441.8,138.6,77.5,15.1
0.229011,677.8,88.5,1366.8,156.1,2433.7,244.8,696.3,1493.2,2449.7,138.5,77.5,15.3
0.231011,666.6,90.8,1363.5,205.6,2440.7,270.1,707.1,1505.2,2457.7,138.5,77.5,15.3
0.233011,660.8,88.4,1366.2,224.2,2435.7,288.6,718,1517.2,2465.8,138.4,77.5,15.3
0.235011,657.9,88.2,1379.4,224.1,2427.8,307.3,728.9,1529.3,2474.1,138.3,77.5,15.1
0.237011,652.7,91.1,1395.3,222.3,2422.0,348.4,740,1541.4,2482.5,138.2,77.5,14.8
0.239011,644.7,92.1,1406.0,217.0,2422.3,403.6,751.2,1553.4,2491,138.2,77.4,14.2
0.241011,635.3,91.9,1413.4,208.2,2422.0,2531.0,762.4,1565.5,2499.6,138.1,77.2,13.6
0.243011,624.4,95.9,1420.9,208.7,2307.0,2303.2,773.7,1577.5,2508.3,138.1,77.1,13.1
0.245011,613.2,103.4,1429.7,221.3,2134.3,2352.2,785,1589.5,2517.1,138,76.9,12.7
0.247011,603.5,109.6,1439.3,235.1,1909.6,2519.8,796.4,1601.5,2525.9,138,76.7,12.6
0.249011,593.6,113.2,1443.0,244.8,1721.1,2610.3,807.8,1613.3,2534.8,138,76.6,12.7
0.251011,579.7,114.0,1436.3,263.3,1668.5,2404.6,819.2,1625.2,2543.8,138.1,76.6,12.8
0.253011,563.8,108.4,1421.1,285.7,1712.1,2063.1,830.6,1636.9,2552.8,138.2,76.5,12.9
0.255011,551.8,99.4,1410.7,289.8,1739.1,1913.1,842,1648.5,2561.8,138.3,76.5,12.8
0.257011,542.0,94.2,1414.2,280.4,1690.7,2043.0,853.4,1660,2570.8,138.4,76.5,12.5
0.259011,533.7,92.6,1424.0,261.7,1564.4,2443.2,864.7,1671.4,2579.8,138.7,76.4,12.1
0.261011,527.6,90.2,1323.6,3195.6,1429.0,235.1,876,1682.7,2588.8,138.9,76.3,11.7
0.263011,523.1,87.7,1427.1,212.1,2677.5,226.7,887.3,1693.8,2597.7,139.3,76.2,11.2
0.265011,517.3,88.2,1421.0,201.7,2674.4,189.9,898.5,1704.7,2606.7,139.7,75.9,10.9
0.267011,508.0,90.3,1411.0,206.8,2676.5,169.9,909.6,1715.5,2615.6,140.3,75.6,10.7
0.269011,497.9,91.2,1401.9,217.6,2678.3,164.6,920.6,1726,2624.4,140.9,75.2,10.6
0.271011,489.9,94.2,1399.7,222.1,2675.0,161.5,931.6,1736.4,2633.1,141.6,74.6,10.5
0.273011,483.0,106.8,1403.6,220.1,2665.9,152.9,942.4,1746.6,2641.8,142.4,73.9,10.3
0.275011,477.5,129.7,1406.4,207.5,2652.2,140.0,953.1,1756.6,2650.4,143.4,73,9.8
0.277011,465.5,154.0,1401.8,205.2,2644.8,140.0,963.6,1766.3,2658.8,144.5,72,8.8
0.279011,436.4,166.1,1387.0,230.0,2648.6,169.4,974,1775.8,2667.2,145.7,70.8,7.4
0.281011,399.4,159.4,1360.8,261.0,2655.4,229.2,984.3,1785,2675.4,147.1,69.4,5.9
0.283011,357.6,156.6,1339.4,267.2,2647.5,293.7,994.3,1794,2683.4,148.6,68,4.7
0.285011,318.2,163.6,1341.0,259.4,2628.2,329.6,1004.2,1802.6,2691.3,150.2,66.6,4.2
0.287011,287.3,198.3,1370.3,273.3,2618.2,377.2,1014,1811,2699,152,65.5,4.6
0.289011,253.5,309.7,1430.5,353.1,2614.8,508.3,1023.5,1819.2,2706.6,0,64.8,5.7
0.291011,90.6,604.5,1511.9,531.7,2586.4,753.1,1032.8,1827,2714,0,64,7
0.295011,1316.8,785.3,2157.2,782.5,3254.9,1439.5,1041.9,1834.4,2721.1,0,63.8,8.9
0.297011,1340.1,648.2,2186.3,692.1,3205.6,1129.7,1050.7,1841.6,2728.1,0,63.4,8.9
0.299011,1400.7,605.1,2251.0,734.6,3221.1,1176.7,1059.3,1848.4,2734.8,0,63.5,8.6
0.301011,1466.6,551.1,2351.5,775.3,3280.0,1337.9,1067.7,1854.9,2741.3,0,63.8,8
0.303011,1497.5,485.0,2459.8,735.9,3336.9,1496.0,1075.8,1861.1,2747.6,0,64.2,7.3
0.305011,1472.0,458.9,2545.1,650.8,3308.7,1681.5,1083.6,1866.8,2753.6,0,64.9,6.7
0.307011,1411.0,474.0,2619.9,565.1,3146.6,2006.1,1091.2,1872.3,2759.4,0,65.6,6
0.309011,1365.3,507.3,2682.3,500.8,2834.0,2266.0,1098.5,1877.3,2764.9,0,65.9,5.2
0.311011,1352.9,544.3,2449.3,2074.3,2734.5,463.7,1105.5,1882,2770.1,0,66.2,4.4
0.313011,1356.0,538.1,2197.8,1498.3,2778.3,436.0,1112.1,1886.3,2775,0,66.1,3.7
0.315011,1367.1,439.5,2140.5,1061.7,2801.0,438.3,1118.5,1890.2,2779.6,0,65.9,3.3
0.317011,1382.1,325.8,2142.0,835.7,2812.1,483.9,1124.6,1893.7,2784,0,65.7,6.6
0.319011,1392.3,253.2,2140.0,743.9,2814.9,574.3,1130.3,1896.8,2788,0,65.3,13.4
0.321011,1395.3,240.9,2122.9,800.7,2794.0,719.2,1135.8,1899.5,2791.7,0,64.7,18.7
0.323011,1394.6,299.3,2071.4,1115.4,2704.0,900.9,1140.9,1901.8,2795.1,0,63.7,17.4
0.325011,1410.5,487.0,1443.7,1606.9,2569.3,832.7,1145.6,1903.7,2798.2,0,62.5,4.6
0.327011,1061.8,711.8,1544.9,554.2,2516.7,693.0,1150,1905.1,2800.9,0,61.6,-29.7
0.329011,987.8,633.2,1551.2,573.4,2475.7,597.1,1154.1,1906.2,2803.3,0,60.8,-82.2
0.331011,963.0,760.3,1534.1,713.3,2471.9,547.9,1157.8,1906.8,2805.3,0,60.3,-138
0.333011,1076.2,821.2,1665.5,978.2,2530.8,501.9,1161.2,1907.1,2807,0,60.3,-182.2
0.335011,1090.5,745.4,1769.6,857.9,2593.1,390.4,1164.2,1906.9,2808.4,0,60.9,-200
0.337011,1136.2,870.3,1711.1,882.2,2618.9,293.7,1166.8,1906.2,2809.4,0,61.9,-181.5
0.339011,1411.3,679.1,1433.1,1550.8,2630.9,234.1,1169.1,1905.2,2810,0,63,-136.6
0.341011,1391.1,345.3,1410.0,2854.8,2644.5,216.5,1171,1903.7,2810.3,0,63.8,-80.1
0.343011,1385.0,212.2,2672.4,232.1,3527.3,132.4,1172.6,1901.8,2810.2,0,64.1,-26.9
0.345011,1386.0,161.8,2738.5,267.6,3504.4,148.9,1173.8,1899.5,2809.8,0,64.3,8.3
0.347011,1388.0,160.4,2817.4,239.6,3505.7,141.9,1174.6,1896.8,2808.9,0,64.7,22.2
0.349011,944.7,2765.2,1385.5,183.8,2846.1,175.5,1175,1893.7,2807.8,0,65.2,24.7
0.351011,1154.8,2457.8,1375.8,213.9,2847.9,145.6,1175.1,1890.1,2806.2,0,65.8,20.7
0.353011,1335.6,2687.2,1360.8,232.4,2843.5,151.6,1174.8,1886.2,2804.3,0,66.2,14.9
0.355011,1351.7,227.4,1619.0,3138.7,2835.9,193.3,1174.1,1881.8,2802,0,66.7,12.5
0.357011,1356.5,206.0,1904.1,3439.6,2826.6,260.7,1173.1,1877.1,2799.3,0,67.2,13.3
0.359011,1369.3,179.3,2026.4,3555.6,2827.0,338.7,1171.7,1871.9,2796.3,0,68,14.1
0.361011,1377.0,160.8,1960.7,2882.3,2865.2,371.5,1170,1866.4,2792.9,0,68.8,14.9
0.363011,1377.0,151.7,1847.4,2109.5,2905.5,319.2,1167.9,1860.4,2789.2,0,69.2,15.6
0.365011,1371.5,138.9,1843.8,1752.4,2901.8,273.3,1165.4,1854.1,2785.1,0,69.2,16.1
0.367011,1362.5,121.9,1948.6,1722.1,2846.4,268.5,1162.6,1847.5,2780.6,0,69,16.5
0.369011,1347.2,120.8,2001.3,1809.1,2759.9,244.7,1159.4,1840.4,2775.8,0,68.6,16.8
0.371011,1317.3,146.1,1898.1,1961.4,2690.3,202.7,1155.9,1833,2770.6,0,68.1,16.9
0.373011,1261.6,164.4,1753.4,2112.6,2636.4,184.6,1152,1825.3,2765.1,274.1,67.5,16.8
0.375011,1216.2,114.1,1982.7,2226.6,2592.1,199.9,1147.8,1817.2,2759.3,274.4,66.6,16.4
0.377011,1200.2,68.1,2352.2,2312.3,2554.5,218.5,1143.3,1808.8,2753.1,274.4,65.9,18.8
0.379011,1195.5,43.4,2532.7,225.1,2677.4,2313.1,1138.4,1800.1,2746.6,274.1,65.7,24
0.381011,1196.2,33.3,2535.1,247.2,2836.9,2092.4,1133.2,1791,2739.8,273.5,65.7,27.4
0.383011,1200.8,32.9,2554.8,327.3,2803.4,1662.2,1127.8,1781.7,2732.6,272.7,65.7,24.3
0.385011,1212.1,45.6,2614.9,565.8,2651.3,1103.3,1122,1772.1,2725.2,271.5,65.3,9.9
0.387011,1233.5,80.5,2505.3,1102.5,2740.1,603.2,1115.9,1762.2,2717.4,0,64.6,-25.7
0.389011,1257.8,121.7,2630.9,1955.4,2701.4,548.2,1109.5,1752,2709.4,0,63.5,-79.3
0.391011,1272.2,128.1,2405.2,3792.6,2701.1,499.3,1102.9,1741.5,2701.1,0,62.4,-136.1
0.393011,1279.5,110.9,2735.2,486.8,3021.7,417.6,1095.9,1730.9,2692.5,0,61.5,-181.3
0.395011,1283.1,95.8,2782.7,416.5,3062.2,432.7,1088.7,1719.9,2683.6,0,61.1,-200
0.397011,1132.5,3356.0,1281.4,86.1,2788.0,346.2,1081.3,1708.8,2674.5,0,61,-179.1
0.399011,1183.8,2659.6,1275.2,79.9,2781.5,311.4,1073.6,1697.4,2665.1,0,61,-128.4
0.401011,1174.6,2211.6,1266.9,78.9,2784.3,282.9,1065.6,1685.9,2655.5,0,61.2,-67.7
0.403011,1257.3,81.9,1260.8,2097.5,2788.2,264.6,1057.5,1674.2,2645.6,0,61.3,-16.9
0.405011,1243.2,86.2,1620.0,2106.8,2771.7,282.7,1049.1,1662.2,2635.5,0,61.4,4.5
0.407011,1227.5,89.0,2013.9,1831.3,2710.3,351.6,1040.5,1650.2,2625.3,0,61.5,-13.5
0.409011,1218.4,96.6,2185.4,1894.9,2606.0,366.4,1031.7,1638,2614.8,0,61.2,-57.7
0.411011,1215.7,112.8,1954.8,2743.0,2538.6,277.7,1022.7,1625.6,2604.1,0,60.7,-113.3
0.413011,1109.7,1835.4,1212.8,137.5,2521.0,216.9,1013.5,1613.2,2593.3,0,60,-165.6
0.415011,1113.0,1273.8,1207.8,169.9,2523.5,188.0,1004.2,1600.6,2582.3,0,59.1,-200
0.417011,1085.3,1073.4,1208.1,200.8,2535.0,170.3,994.7,1588,2571.1,0,58.1,-213.1
0.419011,1006.3,996.1,1222.6,210.8,2545.7,149.6,985.1,1575.3,2559.8,0,57.4,-214.7
0.421011,922.5,1009.2,1235.8,189.0,2542.2,133.5,975.3,1562.5,2548.4,0,56.5,-209.8
0.423011,889.0,1024.7,1240.4,173.1,2521.4,127.6,965.5,1549.7,2536.8,0,56.2,-203.3
0.425011,902.0,910.9,1251.0,180.5,2489.3,121.9,955.5,1536.8,2525.2,0,56.9,-200
0.427011,910.7,714.2,1274.1,199.8,2461.8,115.5,945.4,1523.9,2513.5,0,57.7,-203.2
0.429011,909.7,610.2,1289.4,210.2,2447.8,119.4,935.2,1511.1,2501.6,0,58.4,-209.7
0.431011,922.0,631.8,1280.9,210.2,2446.7,135.1,924.9,1498.2,2489.7,0,59.8,-214.6
0.433011,931.1,793.8,1256.2,173.3,2454.2,151.3,914.6,1485.3,2477.8,0,61.6,-213
0.435011,881.6,1056.0,1241.4,120.4,2458.7,156.3,904.2,1472.5,2465.8,0,63,-200
0.437011,727.8,1166.5,1235.3,90.5,2451.2,146.4,893.8,1459.8,2453.8,0,64.8,-169.1
0.439011,616.4,827.2,1227.0,88.1,2437.2,135.3,883.3,1447.1,2441.8,0,66.7,-123.6
0.441011,586.5,602.3,1205.5,108.9,2427.5,147.8,872.8,1434.5,2429.7,0,68.1,-73.3
0.443011,566.1,499.9,1168.2,137.8,2417.6,202.1,862.3,1422,2417.7,0,69.5,-27.8
0.445011,546.2,431.5,1128.1,149.6,2386.3,306.3,851.9,1409.6,2405.7,0,70.7,3
0.447011,547.3,406.0,1113.0,153.0,2343.5,354.1,841.4,1397.3,2393.7,174.3,71.6,15.8
0.449011,564.4,391.2,1116.7,155.8,2333.4,327.9,831,1385.2,2381.8,172.3,72.3,16.9
0.451011,585.5,360.3,1126.8,154.7,2343.1,292.1,820.6,1373.2,2369.9,170.4,72.8,11.7
0.453011,601.6,323.5,1139.5,151.2,2358.8,263.5,810.2,1361.3,2358.1,168.7,73.2,5.1
0.455011,612.1,293.9,1153.0,147.6,2374.9,252.7,799.9,1349.7,2346.4,167.2,73.4,2.3
0.457011,624.0,274.3,1166.1,144.9,2394.2,272.3,789.7,1338.2,2334.8,166,73.5,3.5
0.459011,638.3,264.6,1173.4,144.7,2416.7,324.8,779.5,1326.9,2323.3,164.8,73.6,5.4
0.461011,644.8,255.6,1168.5,152.8,2433.3,374.1,769.5,1315.8,2311.9,163.9,73.6,7.5
0.463011,636.8,242.4,1146.1,173.3,2429.3,371.1,759.5,1305,2300.6,163.2,73.6,9.5
0.465011,622.1,223.1,1106.0,194.5,2411.5,352.2,749.7,1294.3,2289.5,162.6,73.6,10.9
0.467011,611.6,203.6,1070.1,198.7,2397.8,379.9,740,1283.9,2278.6,162.1,73.6,11.6
0.469011,607.4,186.7,1052.0,192.8,2394.0,502.6,730.4,1273.8,2267.8,161.8,73.7,11.8
0.471011,607.2,168.7,1044.3,178.1,2258.5,643.5,720.9,1263.9,2257.2,161.7,73.8,11.9
0.473011,608.9,151.6,1040.2,156.7,2205.0,493.7,711.6,1254.3,2246.7,161.7,73.9,12
0.475011,611.0,138.4,1036.1,137.3,2196.8,366.8,702.4,1245,2236.5,161.8,74.1,12.4
0.477011,614.6,126.9,1034.2,122.5,2199.0,285.6,693.4,1236,2226.5,162,74.3,13.5
0.479011,619.9,117.3,1038.4,112.7,2204.6,256.5,684.6,1227.2,2216.7,162.3,74.5,15
0.481011,625.7,110.3,1047.0,105.9,2211.6,265.3,676,1218.8,2207.1,162.7,74.7,16.5
0.483011,632.0,104.8,1057.8,100.6,2219.0,300.8,667.5,1210.7,2197.7,163.1,74.9,17.6
0.485011,637.5,101.0,1067.5,97.2,2225.1,346.8,659.3,1202.9,2188.6,163.7,75.1,17.9
0.487011,641.1,100.5,1074.9,95.8,2231.9,391.7,651.2,1195.4,2179.8,164.3,75.2,17.1
0.489011,643.5,102.5,1080.4,95.5,2241.3,429.6,643.4,1188.2,2171.2,164.9,75.4,15.4
0.491011,645.1,103.3,1086.3,93.3,2245.7,472.7,635.8,1181.4,2162.9,165.6,75.5,13.4
0.493011,644.4,100.1,1092.0,87.4,2224.1,553.8,628.3,1175,2154.8,166.3,75.6,11.5
0.495011,643.2,96.0,1098.1,81.3,2173.8,657.6,621.2,1168.9,2147.1,167.1,75.7,10.2
0.497011,643.6,92.2,1106.1,77.0,2112.8,744.6,614.2,1163.1,2139.6,167.9,75.9,9.6
0.499011,645.0,88.3,1115.1,74.2,2068.4,786.4,607.5,1157.7,2132.5,168.7,76,9.3
0.501011,646.5,84.4,1122.9,72.1,2054.3,787.6,601,1152.7,2125.6,169.5,76.2,9.3
0.503011,648.8,80.5,1129.4,71.1,2077.3,756.1,594.8,1148,2119.1,170.4,76.4,9.5
0.505011,652.1,77.8,1134.4,72.9,2134.3,688.3,588.8,1143.7,2112.8,171.2,76.5,9.7
0.507011,656.1,76.2,1139.1,77.8,2188.7,597.6,583.1,1139.7,2106.9,172.1,76.7,9.9
0.509011,660.2,74.8,1143.9,83.3,2212.9,561.9,577.6,1136.2,2101.3,172.9,76.9,10.3
0.511011,663.7,72.8,1148.9,88.5,2210.1,649.3,572.4,1133,2096.1,173.8,77.1,10.7
0.513011,666.2,70.4,1153.5,93.9,2136.3,893.1,567.4,1130.1,2091.1,174.6,77.4,11.4
0.515011,668.1,68.1,1157.5,100.9,1985.7,1043.6,562.7,1127.7,2086.6,175.4,77.6,12.2
0.517011,669.6,65.0,1161.3,109.3,1893.7,1035.0,558.2,1125.6,2082.3,176.3,77.8,13.6
0.519011,671.1,61.3,1165.2,116.1,1886.6,993.5,554.1,1123.8,2078.4,177.1,78.1,15.4
0.521011,672.8,58.7,1171.2,120.1,1914.3,977.8,550.1,1122.5,2074.8,177.9,78.3,17.3
0.523011,674.4,57.0,1179.0,121.4,1949.0,967.6,546.5,1121.5,2071.6,178.6,78.5,18.8
