time,f1,b1,f2,b2,f3,b3,f1p,f2p,f3p,f0,intensity,harmonicity
0.026000,621.6,139.6,1321.1,81.8,2590.3,191.6,617,1269.6,2547.1,143.8,77,1.6
0.028000,619.2,135.0,1308.8,75.5,2578.9,164.5,616.9,1267.6,2548.1,143.9,77.7,2.3
0.030000,617.3,134.9,1297.0,71.6,2571.7,140.0,616.6,1264.3,2549.6,144.1,78.2,3.4
0.032000,616.8,138.2,1284.3,68.4,2566.8,120.8,616.3,1259.6,2551.8,144.3,78.6,4.5
0.034000,615.6,135.5,1272.9,63.7,2564.4,105.1,615.9,1253.7,2554.5,144.5,78.8,5.4
0.036000,613.0,123.0,1264.8,59.0,2563.7,94.9,615.4,1246.6,2557.9,144.7,78.9,6
0.038000,610.8,107.7,1256.6,57.5,2563.3,91.7,614.7,1238.4,2561.7,144.9,79,6.4
0.040000,609.9,96.8,1243.9,61.6,2563.0,97.0,614,1229.2,2566.1,145.1,78.9,6.6
0.042000,609.8,92.0,1224.1,67.8,2563.1,104.9,613.2,1219,2571,145.4,78.8,6.7
0.044000,609.6,89.6,1196.1,69.4,2563.5,110.4,612.3,1208,2576.3,145.6,78.8,6.9
0.046000,608.8,87.1,1164.5,62.8,2564.8,114.2,611.3,1196.2,2582,145.9,78.7,7.2
0.048000,607.6,83.1,1141.3,53.8,2567.9,117.2,610.3,1183.9,2588.1,146.2,78.7,7.4
0.050000,606.9,78.1,1125.8,48.0,2572.7,120.8,609.1,1171,2594.5,146.4,78.7,7.6
0.052000,606.9,74.3,1113.6,47.2,2579.0,127.1,607.8,1157.7,2601.2,146.7,78.7,8
0.054000,606.7,73.7,1102.1,49.7,2586.6,132.7,606.4,1144.2,2608.1,147,78.7,8.4
0.056000,605.9,75.4,1088.0,50.7,2596.7,130.7,605,1130.5,2615.3,147.3,78.7,9.2
0.058000,604.7,77.6,1073.7,47.5,2607.6,122.5,603.4,1116.8,2622.6,147.6,78.7,10.4
0.060000,602.9,79.1,1061.7,42.2,2619.7,112.8,601.7,1103.2,2630,148,78.7,11.8
0.062000,600.2,78.1,1053.0,35.9,2632.5,101.8,600,1089.7,2637.6,148.3,78.7,13.1
0.064000,597.6,73.8,1047.2,29.9,2643.6,93.1,598.1,1076.6,2645.2,148.6,78.7,13.9
0.066000,595.4,68.0,1042.5,25.0,2653.7,90.1,596.2,1063.8,2652.9,148.9,78.7,14.1
0.068000,593.2,62.2,1039.2,21.8,2662.8,92.3,594.2,1051.5,2660.6,149.3,78.6,13.4
0.070000,591.0,57.3,1038.1,20.4,2670.6,95.2,592.1,1039.7,2668.3,149.6,78.4,12.4
0.072000,589.2,54.2,1038.5,20.6,2678.7,97.6,589.9,1028.5,2675.9,150,78.1,11.2
0.074000,588.0,53.3,1038.8,23.1,2687.2,99.4,587.6,1017.9,2683.6,150.3,77.7,10.3
0.076000,587.3,53.9,1038.2,28.1,2694.2,99.6,585.2,1008.1,2691.2,150.7,77.4,10
0.078000,586.7,55.0,1037.6,36.9,2700.8,99.3,582.8,998.9,2698.7,151,77,10.1
0.080000,585.4,56.1,1038.1,52.7,2708.0,99.7,580.3,990.5,2706.2,151.4,76.6,10.3
0.082000,583.2,56.7,1037.3,74.1,2714.9,99.8,577.7,982.8,2713.7,151.7,76.2,10.7
0.084000,581.2,59.2,1030.5,99.3,2721.8,98.3,575,975.8,2721.1,152.1,75.9,11.2
0.086000,579.9,66.1,1015.1,124.0,2729.3,94.4,572.3,969.6,2728.5,152.5,75.7,11.8
0.088000,578.5,75.3,996.2,137.1,2736.2,88.2,569.5,964,2735.8,152.8,75.6,12.6
0.090000,576.1,84.6,976.7,137.4,2742.6,81.7,566.7,959,2743.1,153.2,75.5,13.5
0.092000,572.8,94.1,958.3,129.1,2749.3,76.3,563.8,954.7,2750.4,153.6,75.5,14.3
0.094000,568.3,100.8,944.9,115.4,2755.6,72.1,560.9,950.8,2757.6,153.9,75.6,15
0.096000,562.4,103.0,935.9,98.3,2762.0,68.6,558,947.5,2764.9,154.3,75.7,15.3
0.098000,556.3,102.6,929.9,82.2,2769.6,65.4,555.1,944.5,2772.1,154.7,75.8,15.3
0.100000,551.1,101.3,926.3,71.2,2777.3,62.1,552.1,941.9,2779.4,155,75.8,15.1
0.102000,545.9,97.9,924.3,63.0,2785.9,58.1,549.2,939.5,2786.6,155.4,75.9,14.8
0.104000,541.2,93.8,923.7,58.2,2795.1,54.9,546.2,937.4,2793.8,155.8,75.9,14.5
0.106000,536.9,90.9,923.5,56.4,2805.1,52.7,543.3,935.3,2801,156.1,75.9,14
0.108000,532.6,89.5,922.9,57.7,2814.7,50.4,540.4,933.3,2808.2,156.5,75.9,13.3
0.110000,528.8,89.3,922.8,62.1,2822.7,48.4,537.6,931.3,2815.4,156.9,75.9,12.5
0.112000,525.2,89.8,923.5,70.6,2830.5,47.1,534.8,929.2,2822.4,157.2,75.8,11.8
0.114000,521.8,90.2,923.8,83.3,2839.1,47.0,532,927,2829.4,157.6,75.7,11.4
0.116000,519.5,91.3,922.6,98.8,2847.8,47.9,529.4,924.6,2836.3,158,75.7,11.6
0.118000,518.1,93.5,920.2,118.3,2856.6,48.6,526.8,921.9,2843.1,158.3,75.6,12.5
0.120000,517.1,95.6,916.8,139.5,2864.0,47.5,524.3,919,2849.6,158.7,75.6,13.8
0.122000,516.1,96.8,913.0,155.5,2869.4,45.5,521.9,915.8,2856,159,75.6,15
0.124000,515.1,97.6,908.8,167.1,2874.2,44.2,519.6,912.3,2862,159.4,75.6,15.9
0.126000,513.5,97.2,903.4,173.4,2879.1,44.1,517.5,908.4,2867.8,159.7,75.5,16.1
0.128000,511.4,95.7,897.0,172.7,2883.4,45.1,515.4,904.3,2873.2,160,75.5,15.7
0.130000,509.5,94.7,890.3,169.2,2887.4,47.5,513.5,899.8,2878.1,160.4,75.4,14.9
0.132000,508.1,94.6,883.7,164.8,2890.8,51.1,511.8,895.1,2882.6,160.7,75.4,14.1
0.134000,507.0,95.2,878.1,159.3,2892.4,55.8,510.1,890.1,2886.6,161,75.3,13.6
0.136000,506.8,97.0,873.3,153.8,2892.8,62.5,508.7,884.9,2890,161.4,75.1,13.8
0.138000,507.0,99.9,869.1,148.6,2892.5,70.7,507.3,879.6,2892.8,161.7,75,14.5
0.140000,506.9,102.6,865.6,143.3,2891.3,77.5,506.1,874.2,2894.9,162,74.8,15.5
0.142000,507.0,105.4,862.9,138.9,2889.1,83.1,505.1,868.8,2896.2,162.3,74.6,16.6
0.144000,507.5,109.1,860.5,135.8,2885.4,88.3,504.2,863.4,2896.8,162.6,74.4,17.4
0.146000,507.9,113.6,858.5,133.9,2879.6,92.5,503.4,858.1,2896.6,162.9,74.2,17.9
0.148000,509.3,120.6,856.6,134.1,2871.6,96.2,502.8,853.1,2895.6,163.1,74,18.1
0.150000,511.4,130.1,854.5,136.0,2864.5,98.7,502.3,848.3,2893.8,163.4,73.8,18.2
0.152000,513.1,141.0,852.0,137.8,2859.5,98.9,501.9,843.9,2891,163.7,73.5,18.2
0.154000,514.2,152.8,849.3,138.9,2855.7,96.8,501.6,839.9,2887.4,163.9,73.3,18.1
0.156000,514.4,162.2,846.8,137.0,2852.6,93.6,501.4,836.5,2882.9,164.2,73.1,18.1
0.158000,513.2,168.7,844.9,131.3,2848.9,89.2,501.3,833.7,2877.6,164.4,73,18
0.160000,511.8,174.8,843.8,124.7,2844.6,84.0,501.2,831.5,2871.4,164.7,72.8,17.8
0.162000,511.4,182.5,843.4,120.4,2841.3,79.0,501.2,830.1,2864.4,164.9,72.6,17.7
0.164000,510.9,192.0,843.4,117.5,2838.7,74.4,501.3,829.6,2856.6,165.1,72.5,17.6
0.166000,510.6,204.4,844.1,115.8,2836.3,70.4,501.3,829.9,2848.1,165.3,72.3,17.7
0.168000,510.4,217.1,845.1,114.0,2834.3,67.5,501.3,831.2,2838.9,165.5,72.2,18
0.170000,509.1,227.7,846.6,109.9,2832.2,65.5,501.3,833.4,2829.2,165.7,72,18.4
0.172000,506.8,235.2,848.8,103.6,2829.1,64.4,501.2,836.7,2818.9,165.8,71.8,18.7
0.174000,504.1,235.8,851.5,95.8,2825.2,63.6,501.1,840.9,2808.1,166,71.6,18.7
0.176000,500.0,225.3,854.9,85.6,2820.9,62.4,500.9,846.2,2797,166.2,71.3,18.2
0.178000,495.1,205.8,859.1,74.5,2815.4,61.7,500.5,852.6,2785.6,166.3,71,17.3
0.180000,491.6,189.1,863.4,67.1,2809.0,64.2,500.1,860,2774.1,166.4,70.7,16
0.182000,490.0,180.8,868.5,64.8,2802.1,72.3,499.5,868.4,2762.5,166.6,70.4,14.7
0.184000,490.0,180.6,874.9,67.4,2795.1,89.7,498.7,877.8,2750.9,166.7,70,13.7
0.186000,490.5,183.1,881.5,73.3,2788.0,115.6,497.8,888.2,2739.5,166.8,69.6,13.2
0.188000,489.9,182.7,888.7,80.9,2777.9,148.2,496.6,899.5,2728.4,166.9,69.2,12.8
0.190000,487.6,177.2,897.2,91.5,2760.0,184.8,495.2,911.7,2717.6,166.9,68.8,12.8
0.192000,484.5,166.9,907.0,105.7,2733.5,216.1,493.6,924.7,2707.2,167,68.3,12.9
0.194000,479.9,151.3,920.1,124.7,2700.7,232.9,491.8,938.5,2697.5,167.1,67.9,13.3
0.196000,475.0,135.7,936.4,143.7,2676.8,226.8,489.7,952.9,2688.3,167.1,67.5,14
0.198000,470.6,122.8,955.3,158.7,2664.6,210.2,487.4,967.9,2679.9,167.2,67.1,15.3
0.200000,466.4,114.3,973.9,166.3,2658.3,194.3,484.9,983.4,2672.3,167.2,66.7,16.9
0.202000,463.1,110.7,989.6,166.2,2652.7,184.4,482.1,999.4,2665.6,167.2,66.4,18.5
0.204000,460.5,109.1,1004.4,159.9,2646.7,178.0,479,1015.7,2659.8,167.3,66,19.5
0.206000,458.0,108.7,1020.2,149.4,2641.3,174.1,475.7,1032.3,2655,167.3,65.7,19.7
0.208000,456.3,110.2,1036.6,139.1,2636.8,174.1,472.2,1049,2651.1,167.3,65.4,19.2
0.210000,455.6,112.9,1054.1,129.7,2632.3,178.4,468.4,1065.8,2648.4,167.3,65,18.2
0.212000,456.1,116.9,1071.8,124.7,2629.1,182.4,464.5,1082.6,2646.6,167.3,64.7,17
0.214000,457.4,120.7,1087.3,126.4,2626.4,180.5,460.3,1099.4,2645.9,167.3,64.3,15.6
0.216000,458.6,121.0,1102.2,129.7,2623.2,172.5,456,1116,2646.2,167.3,64,15.2
0.218000,458.5,117.7,1120.3,128.5,2623.0,159.9,451.6,1132.3,2647.5,167.3,63.7,19
0.220000,457.9,118.9,1144.9,125.9,2629.3,150.8,447,1148.3,2649.7,167.3,63.5,23.5
0.222000,458.3,132.0,1176.4,128.4,2640.6,151.0,442.3,1164,2652.9,167.3,63.4,23.9
0.224000,460.7,157.9,1204.6,131.5,2650.1,150.8,437.5,1179.2,2656.8,0,63.5,15.6
0.226000,463.9,180.7,1218.2,128.2,2654.4,142.7,432.7,1193.9,2661.6,0,63.7,-6.8
0.228000,464.4,183.5,1222.9,118.4,2656.1,131.6,427.8,1208,2666.9,0,63.8,-47.2
0.230000,459.4,162.6,1225.3,105.3,2656.7,121.5,423,1221.6,2672.9,0,63.9,-97.2
0.232000,449.4,132.8,1230.4,96.0,2658.4,118.0,418.2,1234.5,2679.4,0,63.9,-146.9
0.234000,436.6,110.2,1245.9,99.2,2666.3,129.0,413.5,1246.7,2686.2,0,63.8,-186.8
0.236000,425.2,108.5,1283.4,122.7,2688.9,151.5,409,1258.2,2693.3,0,63.8,-208.4
0.238000,419.6,122.3,1318.8,140.0,2712.1,155.6,404.5,1269,2700.5,0,63.7,-215.2
0.240000,417.6,136.4,1332.2,138.3,2725.6,147.6,400.3,1279.1,2707.8,0,63.6,-212.9
0.242000,415.3,137.7,1333.4,127.9,2733.1,138.7,396.2,1288.4,2714.9,0,63.3,-206.5
0.244000,409.7,127.1,1331.4,115.0,2739.5,130.9,392.4,1296.9,2722,0,62.8,-200.9
0.246000,398.1,108.7,1328.8,100.9,2747.1,125.8,388.9,1304.6,2728.7,0,62.1,-200
0.248000,381.2,88.6,1326.8,87.4,2755.8,128.0,385.6,1311.5,2735,0,61.1,-200
0.250000,363.1,70.0,1326.3,75.7,2764.2,144.2,382.7,1317.6,2740.8,0,59.9,-200
0.252000,350.6,62.5,1327.9,73.2,2772.1,153.3,380.1,1322.9,2746,0,58.6,-200
0.254000,347.1,70.5,1328.2,82.0,2769.3,128.2,377.9,1327.3,2750.6,0,57.2,-200
0.256000,348.7,84.5,1321.5,92.3,2760.8,109.9,376.1,1331,2754.4,0,55.7,-200
0.258000,353.1,97.0,1307.9,99.4,2753.8,102.2,374.6,1333.8,2757.4,0,54.1,-200
0.260000,358.4,98.6,1293.0,104.7,2748.6,101.4,373.6,1335.9,2759.6,0,52.5,-200
0.262000,360.4,84.2,1277.5,120.0,2744.9,108.9,372.9,1337.1,2761,0,51,-200
0.264000,358.0,69.7,1263.8,179.6,2743.2,135.4,372.7,1337.5,2761.4,0,49.9,-200
