time,f1,b1,f2,b2,f3,b3,f1p,f2p,f3p,f0,intensity,harmonicity
0.025011,552.1,113.9,1575.8,255.8,3457.3,227.9,626.8,1536.7,3505.3,241.4,66.4,15.8
0.027011,566.1,126.1,1579.1,237.5,3466.9,225.0,627.4,1536.3,3504.1,241.3,66.4,17.5
0.029011,579.9,137.0,1584.3,227.1,3474.2,219.3,628.4,1535.5,3502.1,241.2,66.3,19.3
0.031011,594.0,146.7,1589.3,221.7,3480.1,216.8,629.8,1534.5,3499.2,241,66.3,20.9
0.033011,607.8,154.6,1592.5,219.8,3486.2,222.4,631.5,1533.2,3495.6,240.9,66.2,22.3
0.035011,621.2,160.5,1593.7,219.6,3493.6,235.7,633.6,1531.5,3491.3,240.8,66.1,23.4
0.037011,633.8,164.1,1593.1,220.7,3500.7,253.1,636.1,1529.6,3486.3,240.6,66.1,24
0.039011,646.4,165.8,1590.6,223.4,3504.9,273.8,638.8,1527.3,3480.5,240.5,66,24.2
0.041011,657.8,164.7,1585.4,227.5,3504.0,294.3,641.9,1524.7,3474.2,240.3,66,24.2
0.043011,667.9,160.4,1576.8,232.1,3500.4,310.4,645.3,1521.9,3467.2,240.1,66,24.2
0.045011,676.0,154.2,1565.2,237.1,3495.6,320.3,648.9,1518.7,3459.8,240,66.1,24.3
0.047011,682.7,147.8,1550.4,244.2,3486.9,328.0,652.7,1515.2,3451.8,239.8,66.1,24.5
0.049011,687.7,143.4,1533.6,254.4,3473.3,334.8,656.8,1511.4,3443.4,239.6,66.1,24.7
0.051011,691.2,141.0,1514.6,265.8,3456.7,340.3,661,1507.2,3434.6,239.5,66.2,25
0.053011,693.6,139.6,1494.1,273.1,3440.2,345.1,665.3,1502.8,3425.6,239.3,66.3,25.2
0.055011,695.7,137.6,1471.0,271.9,3423.7,353.2,669.8,1498,3416.3,239.1,66.4,25.3
0.057011,698.0,133.7,1448.6,259.0,3409.0,367.0,674.3,1493,3406.8,238.9,66.5,25.3
0.059011,701.2,127.2,1428.6,236.3,3394.6,382.8,678.8,1487.6,3397.2,238.8,66.6,25.3
0.061011,704.9,119.3,1413.0,210.6,3377.8,389.0,683.4,1481.9,3387.5,238.6,66.7,25.2
0.063011,708.9,111.1,1400.5,185.5,3356.6,379.4,687.9,1475.9,3377.8,238.4,66.8,25.1
0.065011,712.4,104.5,1391.4,166.1,3337.3,359.0,692.4,1469.6,3368.3,238.3,66.9,25
0.067011,715.1,100.6,1384.5,153.5,3325.7,339.5,696.7,1463,3358.8,238.1,67,24.7
0.069011,717.2,98.4,1378.0,144.6,3321.0,327.3,701,1456.2,3349.6,238,67.1,24.3
0.071011,718.6,97.2,1372.1,137.6,3319.3,327.3,705.1,1449,3340.6,237.8,67.1,24
0.073011,719.7,95.9,1367.3,130.4,3314.5,337.6,709,1441.6,3331.9,237.7,67.2,23.7
0.075011,720.4,94.7,1363.9,124.1,3304.7,347.1,712.6,1434,3323.6,237.5,67.2,23.8
0.077011,720.8,93.9,1361.4,119.3,3293.4,347.6,716.1,1426.1,3315.7,237.4,67.3,24.3
0.079011,720.8,93.8,1359.6,116.2,3285.5,341.0,719.3,1418.1,3308.2,237.3,67.3,25.2
0.081011,720.7,94.1,1358.0,113.6,3282.0,333.5,722.2,1409.8,3301.1,237.2,67.3,26.1
0.083011,720.8,94.7,1356.2,111.2,3281.6,327.8,724.8,1401.4,3294.6,237.1,67.3,27
0.085011,721.0,95.8,1353.9,109.4,3282.9,322.6,727,1392.8,3288.7,237,67.3,27.4
0.087011,721.3,97.3,1351.0,108.5,3284.7,318.1,729,1384,3283.3,236.9,67.3,27.2
0.089011,721.7,98.5,1347.6,108.4,3286.9,316.1,730.6,1375.2,3278.4,236.8,67.3,26.6
0.091011,722.1,98.7,1344.0,108.4,3289.3,316.4,731.8,1366.3,3274.2,236.8,67.2,25.8
0.093011,722.2,98.2,1339.5,108.3,3291.6,315.8,732.7,1357.4,3270.5,236.7,67.2,25.3
0.095011,721.7,98.1,1334.6,108.6,3292.9,313.8,733.3,1348.4,3267.4,236.7,67.1,25.2
0.097011,720.5,99.0,1329.6,110.0,3293.0,314.6,733.5,1339.4,3264.9,236.7,67.1,25.8
0.099011,719.1,100.8,1325.3,112.4,3291.5,321.6,733.3,1330.5,3263,236.7,67.1,27
0.101011,717.6,102.8,1321.3,115.0,3287.5,332.9,732.8,1321.6,3261.7,236.7,67,28.3
0.103011,716.2,104.3,1317.8,116.8,3282.2,340.1,731.9,1312.9,3260.8,236.7,67,29.5
0.105011,714.8,105.3,1314.7,118.0,3278.2,338.2,730.7,1304.2,3260.5,236.7,66.9,30.4
0.107011,713.6,106.3,1312.1,118.8,3276.8,332.0,729.2,1295.8,3260.7,236.8,66.9,31
0.109011,712.5,107.5,1309.9,119.2,3276.5,327.0,727.4,1287.5,3261.3,236.9,66.8,31.6
0.111011,711.4,108.9,1308.3,119.3,3275.5,324.3,725.3,1279.4,3262.3,237,66.7,31.9
0.113011,710.1,110.6,1306.6,119.5,3273.2,320.9,722.9,1271.6,3263.7,237.1,66.7,31.9
0.115011,708.6,112.5,1304.5,120.2,3270.8,314.6,720.3,1264.1,3265.4,237.2,66.6,31.4
0.117011,706.9,114.7,1301.5,121.4,3270.3,306.0,717.4,1256.9,3267.4,237.3,66.6,30
0.119011,705.3,117.1,1297.6,122.7,3273.0,299.7,714.4,1250,3269.7,237.4,66.5,27.8
0.121011,703.8,119.8,1293.0,123.9,3278.0,298.4,711.2,1243.5,3272.1,237.6,66.4,25.4
0.123011,702.3,123.0,1287.2,124.9,3283.3,301.9,707.8,1237.3,3274.7,237.8,66.4,23.5
0.125011,700.6,126.2,1280.4,126.0,3285.9,309.9,704.3,1231.6,3277.4,237.9,66.3,22.6
0.127011,698.5,129.3,1272.8,127.4,3284.9,320.6,700.7,1226.2,3280.2,238.1,66.3,23.3
0.129011,696.1,132.3,1265.5,128.9,3282.6,329.6,697,1221.3,3282.9,238.3,66.2,25.2
0.131011,693.0,135.7,1258.2,130.1,3282.3,333.3,693.3,1216.9,3285.6,238.5,66.2,27.5
0.133011,689.8,139.2,1251.8,130.0,3286.0,329.4,689.6,1212.8,3288.2,238.8,66.1,29.4
0.135011,686.7,142.1,1246.0,128.1,3291.3,320.8,685.8,1209.3,3290.7,239,66.1,30.4
0.137011,683.7,144.0,1240.6,124.7,3295.9,314.6,682.1,1206.2,3293,239.2,66,30.1
0.139011,680.8,144.8,1234.4,120.3,3299.7,314.9,678.4,1203.5,3295.2,239.4,66,28.8
0.141011,677.9,144.9,1227.6,115.6,3302.2,321.8,674.8,1201.3,3297.1,239.7,66,27.2
0.143011,675.1,144.3,1220.9,110.4,3301.0,330.8,671.3,1199.5,3298.7,239.9,65.9,25.8
0.145011,672.6,142.9,1215.5,104.6,3294.9,337.1,667.9,1198.2,3300.1,240.1,65.9,25.2
0.147011,670.6,140.9,1211.4,98.1,3286.2,340.2,664.5,1197.3,3301.2,240.4,65.9,25.7
0.149011,669.3,139.0,1208.4,92.0,3279.8,342.5,661.4,1196.8,3302,240.6,65.9,26.8
0.151011,668.1,138.0,1205.8,87.2,3277.4,344.2,658.4,1196.7,3302.4,240.9,65.9,28.2
0.153011,666.4,137.9,1203.5,83.9,3277.6,340.9,655.5,1196.9,3302.6,241.1,65.9,29.3
0.155011,663.6,138.8,1201.2,82.0,3277.8,330.5,652.8,1197.5,3302.4,241.3,65.9,29.8
0.157011,660.2,140.5,1199.4,81.6,3276.8,319.7,650.2,1198.4,3301.9,241.6,65.8,29.3
0.159011,657.1,142.3,1198.3,81.7,3274.7,315.8,647.9,1199.5,3301.1,241.8,65.8,28.1
0.161011,655.6,142.8,1198.1,80.8,3272.7,319.5,645.7,1200.9,3300.1,242,65.8,26.7
0.163011,655.5,141.7,1198.4,78.4,3272.3,327.3,643.6,1202.5,3298.7,242.3,65.8,25.3
0.165011,656.0,139.6,1198.8,75.3,3274.7,335.2,641.8,1204.2,3297.1,242.5,65.8,24.2
0.167011,655.9,137.6,1198.8,73.2,3278.5,342.2,640.1,1206.1,3295.3,242.7,65.8,23.3
0.169011,654.6,135.3,1198.6,72.3,3281.1,350.0,638.5,1208,3293.4,242.9,65.8,22.5
0.171011,652.4,132.5,1198.1,72.0,3279.4,360.1,637.1,1210,3291.3,243.1,65.9,21.8
0.173011,650.4,129.8,1197.3,71.4,3273.4,375.1,635.8,1212,3289,243.3,65.9,21.3
0.175011,648.8,128.5,1196.4,70.0,3266.0,394.2,634.6,1213.9,3286.8,243.5,65.9,21.1
0.177011,646.9,129.1,1195.5,68.2,3260.5,412.9,633.5,1215.8,3284.5,243.7,65.8,21.3
0.179011,644.0,131.5,1195.0,67.2,3260.5,420.4,632.5,1217.5,3282.2,243.8,65.8,21.8
0.181011,640.2,134.7,1194.5,67.8,3264.2,414.6,631.5,1219.1,3280,244,65.7,22.4
0.183011,636.3,137.1,1193.9,69.6,3267.7,405.2,630.6,1220.4,3277.9,244.1,65.7,23.2
0.185011,632.7,138.2,1193.1,72.0,3271.7,399.4,629.7,1221.5,3276,244.3,65.7,23.8
0.187011,630.0,137.8,1192.3,73.8,3277.8,399.2,628.8,1222.3,3274.3,244.4,65.7,24.4
0.189011,628.0,136.5,1191.4,74.1,3284.9,401.6,627.9,1222.8,3272.9,244.6,65.7,25
0.191011,626.3,135.4,1190.2,73.3,3289.7,402.4,626.9,1223,3271.7,244.7,65.7,25.6
0.193011,623.9,134.5,1188.8,72.1,3291.7,398.6,625.9,1222.8,3270.9,244.8,65.7,26.2
0.195011,620.6,134.1,1187.5,71.6,3291.3,390.5,624.8,1222.2,3270.5,245,65.6,26.8
0.197011,616.8,133.8,1186.4,71.8,3289.7,382.5,623.6,1221.1,3270.6,245.1,65.6,27.3
0.199011,613.2,133.5,1185.8,72.3,3289.0,381.2,622.3,1219.7,3271,245.2,65.6,27.9
0.201011,609.8,133.3,1185.6,73.0,3292.3,390.6,620.8,1217.7,3272,245.3,65.6,28.5
0.203011,606.7,133.6,1185.4,73.9,3300.6,406.3,619.2,1215.4,3273.4,245.4,65.6,29
0.205011,603.6,134.2,1184.6,75.0,3309.6,415.2,617.4,1212.5,3275.4,245.6,65.6,29.5
0.207011,600.8,134.5,1183.3,76.0,3312.9,409.6,615.4,1209.2,3277.9,245.7,65.6,30.1
0.209011,597.8,134.8,1181.4,77.3,3313.1,396.3,613.3,1205.5,3280.9,245.8,65.5,30.7
0.211011,594.4,134.9,1179.4,78.7,3317.1,389.4,610.9,1201.3,3284.5,246,65.5,31.3
0.213011,590.8,134.8,1177.3,80.1,3326.9,393.1,608.4,1196.6,3288.6,246.1,65.4,31.7
0.215011,587.5,134.2,1175.5,81.1,3336.5,399.9,605.6,1191.6,3293.2,246.3,65.4,31.9
0.217011,584.6,133.1,1173.7,82.1,3341.3,404.0,602.6,1186.1,3298.4,246.4,65.4,31.9
0.219011,582.2,131.6,1171.9,83.4,3341.4,404.0,599.4,1180.4,3304,246.6,65.3,31.5
0.221011,580.0,130.0,1169.8,85.0,3341.2,400.8,596,1174.3,3310,246.7,65.3,31.1
0.223011,577.6,128.3,1167.1,87.2,3344.3,395.6,592.4,1167.9,3316.5,246.9,65.2,30.6
0.225011,574.5,126.9,1163.8,90.2,3352.0,390.4,588.5,1161.2,3323.3,247.1,65.2,30.3
0.227011,571.0,125.8,1159.7,94.2,3362.4,386.3,584.5,1154.4,3330.4,247.3,65.2,30.1
0.229011,567.5,124.7,1155.2,98.2,3370.5,380.9,580.3,1147.4,3337.8,247.5,65.1,30.1
0.231011,563.7,123.3,1150.0,101.5,3372.5,369.0,576,1140.3,3345.4,247.7,65.1,30
0.233011,560.1,121.3,1144.5,103.2,3367.9,349.9,571.5,1133.2,3353.2,247.9,65,29.8
0.235011,556.3,118.7,1139.3,103.7,3362.3,330.7,566.9,1126.1,3360.9,248.2,65,29.3
0.237011,552.3,115.9,1134.8,104.8,3360.8,318.8,562.1,1119.1,3368.7,248.4,64.9,28.2
0.239011,547.7,112.6,1130.3,108.0,3364.9,314.9,557.3,1112.3,3376.4,248.6,64.9,26.7
0.241011,543.0,108.8,1125.3,112.7,3373.2,318.1,552.4,1105.6,3383.9,248.9,64.8,25.1
0.243011,539.0,104.3,1119.3,117.1,3381.6,324.1,547.5,1099.3,3391.2,249.1,64.8,23.8
0.245011,536.1,99.8,1113.3,119.1,3386.4,327.3,542.6,1093.2,3398.1,249.4,64.8,23.1
0.247011,534.2,95.7,1108.1,118.1,3385.8,324.6,537.8,1087.6,3404.6,249.6,64.7,23.4
0.249011,532.9,92.5,1105.4,115.4,3380.5,318.5,532.9,1082.4,3410.6,249.8,64.7,24.2
0.251011,531.6,90.1,1104.8,113.5,3372.9,314.6,528.2,1077.8,3416,250.1,64.6,25.4
0.253011,530.3,88.4,1104.4,113.4,3365.7,314.4,523.5,1073.7,3420.7,250.3,64.6,26.4
0.255011,528.7,86.5,1102.8,114.8,3358.7,315.6,519.1,1070.3,3424.7,250.5,64.5,26.9
0.257011,526.8,84.3,1099.8,117.3,3352.5,317.6,514.7,1067.6,3427.8,250.8,64.4,26.7
0.259011,524.6,81.7,1097.0,121.4,3347.9,320.7,510.6,1065.7,3430,251,64.3,26
0.261011,522.5,79.2,1095.7,126.6,3346.9,323.0,506.7,1064.5,3431.2,251.2,64.3,25.2
0.263011,521.1,76.9,1096.6,132.3,3350.0,320.6,503.1,1064.3,3431.4,251.3,64.2,24.6
0.265011,520.9,75.2,1100.8,136.7,3356.5,311.4,499.7,1064.9,3430.5,251.5,64.2,24.6
0.267011,521.6,74.3,1108.0,138.1,3364.1,298.6,496.7,1066.4,3428.4,251.7,64.1,25.3
0.269011,522.8,73.6,1116.6,136.8,3371.7,286.7,494,1068.9,3425.1,251.8,64,26.5
0.271011,523.4,72.8,1123.7,136.0,3377.2,280.9,491.6,1072.4,3420.5,251.9,63.9,27.9
0.273011,523.1,71.9,1129.4,139.1,3379.0,282.3,489.6,1076.9,3414.6,252,63.8,29.2
0.275011,522.3,71.2,1134.7,146.2,3376.5,287.9,487.9,1082.3,3407.5,252.1,63.7,30.1
0.277011,521.2,71.0,1141.4,155.9,3370.3,294.1,486.7,1088.9,3399,252.2,63.6,30.6
0.279011,520.3,71.2,1149.7,163.9,3361.9,299.6,485.9,1096.4,3389.1,252.2,63.5,30.8
0.281011,520.1,71.5,1159.8,165.2,3352.5,306.5,485.5,1104.9,3378,252.2,63.4,30.8
0.283011,520.7,71.4,1169.6,159.6,3344.0,313.7,485.5,1114.4,3365.5,252.2,63.2,30.6
0.285011,521.7,70.7,1177.6,151.6,3337.4,318.5,485.9,1124.9,3351.7,252.2,63.1,30.1
0.287011,522.1,69.4,1183.0,147.0,3335.0,319.5,486.8,1136.4,3336.6,252.2,62.9,29.2
0.289011,521.6,68.0,1187.6,145.8,3335.2,319.7,488,1148.7,3320.4,252.1,62.8,27.8
0.291011,520.6,66.9,1192.8,144.5,3334.5,321.8,489.7,1161.9,3302.9,252.1,62.6,26.3
0.293011,519.2,65.9,1198.4,141.1,3331.2,323.7,491.8,1176,3284.3,252,62.5,24.8
0.295011,517.6,65.1,1202.9,136.8,3326.5,321.4,494.2,1190.8,3264.7,251.9,62.3,23.7
0.297011,515.8,64.2,1206.1,133.7,3323.2,314.7,497,1206.3,3244,251.8,62.1,22.9
0.299011,514.0,63.1,1209.3,132.9,3322.6,307.2,500.2,1222.5,3222.5,251.7,61.8,22.4
0.301011,512.3,61.8,1213.7,133.9,3324.1,302.2,503.7,1239.2,3200.2,251.5,61.6,22
0.303011,510.6,60.6,1217.7,136.4,3325.5,304.5,507.5,1256.4,3177.2,251.4,61.3,21.5
0.305011,508.2,59.5,1218.8,139.9,3322.9,322.5,511.5,1274.1,3153.6,251.3,61,20.9
0.307011,505.3,58.9,1216.7,144.7,3312.4,365.2,515.8,1292,3129.5,251.1,60.7,20
0.309011,502.2,59.4,1213.5,153.0,3287.3,436.4,520.4,1310.2,3105,251,60.4,18.9
0.311011,499.5,61.5,1212.1,167.6,3249.4,514.2,525.1,1328.6,3080.3,250.8,60,17.8
0.313011,497.3,64.5,1214.4,187.7,3203.3,598.3,529.9,1347.1,3055.5,250.7,59.6,16.6
0.315011,495.6,67.3,1220.9,206.7,3144.2,677.3,534.9,1365.5,3030.6,250.5,59.1,15.3
0.317011,494.6,69.7,1232.6,218.4,3067.2,719.1,539.9,1383.7,3005.9,250.4,58.5,17.2
0.319011,494.3,71.9,1247.3,220.2,2985.8,691.6,545,1401.8,2981.5,250.3,57.8,22.3
0.321011,492.8,74.7,1261.1,221.4,2909.0,615.3,550,1419.5,2957.5,250.1,57,25.6
0.323011,486.9,79.6,1274.3,235.9,2837.2,522.0,555,1436.9,2934,250,55.9,22.6
0.325011,473.2,88.3,1286.6,275.3,2782.8,448.9,560,1453.7,2911.2,249.9,54.7,8.2
0.327011,449.4,100.4,1296.1,341.4,2743.4,408.4,564.8,1469.9,2889.2,249.8,53.2,-23.9
0.329011,417.8,110.4,1292.3,413.8,2714.0,403.3,569.5,1485.5,2868,249.7,51.5,-70.6
0.331011,381.8,112.6,1260.9,458.1,2689.1,439.0,574,1500.2,2847.9,249.6,49.6,-122
0.333011,351.1,109.3,1219.5,440.1,2658.1,530.7,578.3,1514.2,2829,249.5,47.4,-168.5
0.335011,325.6,109.1,1207.1,413.8,2571.9,589.1,582.3,1527.1,2811.3,249.4,45.1,-200
0.337011,299.9,114.8,1241.9,450.3,2523.2,529.6,586,1539.1,2795,0,42.6,-213.3
0.339011,269.9,117.7,1354.3,547.7,2535.8,530.2,589.5,1550,2780.1,0,40.4,-215
0.341011,247.1,127.9,1463.1,536.9,2583.4,544.6,592.5,1559.8,2766.7,0,38.3,-210
0.343011,235.3,202.3,1469.2,511.9,2606.3,557.6,595.3,1568.4,2755,0,36.5,-203.3
0.345011,213.6,369.1,1461.1,577.5,2591.7,642.0,597.6,1575.7,2745,0,36,-200
0.347011,1471.5,804.8,2541.6,855.3,3571.8,452.8,599.5,1581.8,2736.7,0,34.8,-200
0.349011,1172.2,1613.1,2057.4,1775.8,2523.6,1777.5,601.1,1586.6,2730.2,0,34.1,-200
0.351011,1002.9,1000.7,2030.0,848.1,2939.1,1127.0,602.2,1590,2725.5,0,31.7,-200
0.353011,999.0,831.7,2031.2,788.8,2894.9,868.4,602.8,1592.1,2722.7,0,29.8,-200
0.355011,1008.6,758.9,2031.4,911.8,2830.3,763.1,603,1592.7,2721.7,0,27.9,-200
