time,f1,b1,f2,b2,f3,b3,f1p,f2p,f3p,f0,intensity,harmonicity
0.026000,537.2,108.4,2161.5,533.7,2936.6,502.5,543.7,2130.6,2983.3,171.8,61.9,12
0.028000,544.3,92.6,2145.1,399.9,2956.2,415.8,543,2132.5,2980.2,171.8,62.9,19
0.030000,546.7,85.6,2134.7,306.8,2968.5,362.5,541.7,2135.6,2975.2,171.7,63.6,17.2
0.032000,546.0,85.1,2128.8,242.8,2982.7,335.3,540,2139.6,2968.7,171.6,64.2,11.4
0.034000,542.7,85.3,2127.3,206.7,2996.9,332.2,538,2144.5,2961,171.5,64.6,6.8
0.036000,537.8,81.6,2130.5,192.0,3004.1,348.4,535.6,2150.1,2952.5,171.4,65,7.3
0.038000,532.7,75.4,2138.5,187.3,2994.1,372.3,532.9,2156.1,2943.9,171.3,65.4,9.4
0.040000,528.3,68.5,2150.9,189.8,2964.3,407.4,529.9,2162.3,2935.6,171.1,65.7,11.9
0.042000,524.1,61.3,2165.8,199.2,2921.1,459.0,526.9,2168.5,2928.2,171,66,14.3
0.044000,520.1,54.7,2178.5,208.7,2873.0,501.0,523.7,2174.5,2922.2,170.8,66.3,16.2
0.046000,516.6,49.1,2187.7,209.8,2846.6,509.2,520.4,2180.2,2918,170.7,66.6,17.3
0.048000,513.4,44.1,2195.4,202.6,2859.1,512.0,517.1,2185.4,2916.2,170.5,66.8,17.6
0.050000,510.3,39.7,2201.6,189.6,2898.4,510.1,513.8,2190,2917,170.3,67,17.5
0.052000,507.3,36.1,2203.9,174.5,2934.6,485.5,510.4,2194.2,2920.5,170.1,67.1,17.2
0.054000,504.6,33.4,2202.3,159.7,2949.8,445.5,507,2197.8,2927,169.9,67.2,16.8
0.056000,502.0,31.9,2200.6,143.7,2956.3,399.7,503.5,2201.1,2936.4,169.7,67.2,16.5
0.058000,499.6,31.6,2202.6,127.3,2972.5,351.3,499.9,2204.1,2948.5,169.4,67.2,16.1
0.060000,497.1,32.2,2208.1,114.2,2997.6,306.3,496.1,2207,2963.2,169.2,67.2,15.6
0.062000,494.4,33.4,2214.3,105.1,3019.0,269.6,492,2210.1,2980,168.9,67.1,15.1
0.064000,491.2,35.0,2219.3,98.0,3031.6,241.6,487.6,2213.6,2998.7,168.6,66.9,14.7
0.066000,487.4,36.8,2223.1,93.7,3040.1,224.0,482.8,2217.6,3018.6,168.3,66.6,14.4
0.068000,483.0,39.2,2226.3,94.7,3047.7,219.6,477.5,2222.3,3039.4,168,66.3,14.3
0.070000,477.2,43.2,2230.7,104.9,3053.8,233.3,471.7,2228,3060.6,167.6,66,14.2
0.072000,470.1,49.4,2236.9,124.1,3053.7,264.5,465.4,2234.7,3081.5,167.3,65.6,14.2
0.074000,461.8,56.9,2242.1,145.2,3047.4,306.1,458.6,2242.4,3101.9,166.9,65.3,14.3
0.076000,452.3,63.8,2244.4,161.8,3045.6,351.7,451.2,2251.2,3121.2,166.5,65,14.4
0.078000,441.7,69.2,2245.7,174.7,3065.5,393.5,443.2,2261,3139.2,166.1,64.8,14.6
0.080000,431.1,73.5,2247.7,187.8,3116.3,407.5,434.8,2271.8,3155.6,165.7,64.7,14.9
0.082000,421.0,77.3,2252.2,203.5,3179.6,362.0,426,2283.2,3170.2,165.3,64.6,15.1
0.084000,411.3,81.0,2261.3,224.1,3226.4,282.4,416.8,2295.1,3182.9,164.8,64.6,15.4
0.086000,402.3,84.6,2275.8,253.6,3248.5,219.6,407.4,2307.3,3193.7,164.4,64.6,15.7
0.088000,393.7,87.0,2299.5,296.3,3251.0,194.5,397.9,2319.5,3202.6,163.9,64.6,16
0.090000,384.9,88.5,2340.9,345.6,3243.7,203.7,388.3,2331.4,3210,163.4,64.7,16.3
0.092000,376.7,89.9,2393.0,373.3,3235.1,225.8,378.9,2342.8,3215.8,162.9,64.7,16.6
0.094000,369.2,89.8,2428.5,368.1,3228.8,230.0,369.7,2353.5,3220.3,162.4,64.8,16.8
0.096000,361.6,87.7,2433.6,350.6,3224.0,212.5,360.9,2363.2,3223.9,161.9,64.8,16.9
0.098000,353.9,83.9,2418.0,334.8,3221.4,198.8,352.5,2372,3226.6,161.4,64.8,16.9
0.100000,346.8,78.5,2395.3,314.7,3222.0,202.2,344.6,2379.7,3228.9,160.9,64.8,16.8
0.102000,340.2,74.0,2376.9,279.7,3225.2,218.3,337.3,2386.4,3230.8,160.4,64.7,16.7
0.104000,333.8,71.3,2366.3,241.4,3228.2,249.0,330.6,2392.2,3232.5,159.9,64.6,16.7
0.106000,328.2,68.2,2364.1,216.6,3227.8,290.8,324.5,2397.3,3234.3,159.4,64.5,16.8
0.108000,323.0,64.2,2370.3,207.5,3227.3,310.1,319.1,2401.9,3236.1,158.9,64.3,17
0.110000,317.3,60.4,2380.8,211.8,3231.2,296.0,314.2,2406.2,3237.9,158.4,64.1,17.3
0.112000,312.0,57.5,2388.0,231.0,3236.7,274.7,309.9,2410.7,3239.8,157.9,63.9,17.6
0.114000,307.7,55.1,2385.8,266.8,3242.2,264.4,306.1,2415.6,3241.7,157.4,63.7,17.9
0.116000,303.5,52.3,2374.3,326.9,3245.3,265.6,302.8,2421.2,3243.4,156.9,63.4,18
0.118000,299.2,50.2,2371.3,405.5,3236.9,255.4,299.8,2428,3245,156.5,63.2,18
0.120000,295.3,50.8,2414.7,474.8,3224.2,221.9,297.1,2436.1,3246.1,156,62.9,18
0.122000,291.5,52.8,2494.6,490.3,3220.6,196.5,294.5,2445.8,3246.7,155.6,62.7,17.9
0.124000,287.6,53.1,2542.4,434.4,3223.8,180.3,292.2,2457.2,3246.7,155.1,62.4,18
0.126000,284.6,51.8,2541.2,346.4,3230.4,166.5,289.8,2470.3,3246.1,154.7,62.2,18.1
0.128000,282.6,49.7,2518.9,267.4,3239.4,161.9,287.5,2485.1,3244.6,154.3,61.9,18.4
0.130000,281.4,47.6,2497.4,220.3,3248.5,174.4,285.2,2501.4,3242.4,153.9,61.7,18.8
0.132000,281.2,48.4,2489.4,213.7,3253.6,205.4,282.9,2519,3239.5,153.5,61.4,19.1
0.134000,281.4,53.9,2503.0,247.3,3251.7,247.6,280.6,2537.4,3235.9,153.2,61.2,19.4
0.136000,281.2,62.4,2540.2,304.4,3249.2,297.4,278.3,2556.4,3231.7,152.8,60.9,19.6
0.138000,280.6,70.4,2585.2,340.8,3257.1,358.3,276,2575.3,3227.2,152.5,60.7,19.8
0.140000,279.2,77.4,2615.0,334.6,3276.8,425.8,273.8,2593.8,3222.5,152.2,60.4,19.9
0.142000,276.4,83.3,2630.4,314.3,3291.9,488.3,271.8,2611.2,3217.9,151.9,60.2,20
0.144000,273.0,85.4,2639.4,309.7,3275.5,517.0,269.9,2627,3213.5,151.6,60,20.1
0.146000,270.0,81.6,2642.1,328.5,3228.6,476.0,268.3,2640.7,3209.5,151.3,59.7,20.1
0.148000,267.1,73.8,2639.0,362.3,3181.2,384.6,267,2651.9,3206.3,151.1,59.5,20.3
0.150000,264.5,66.9,2640.1,401.1,3151.3,300.7,266,2660.1,3203.8,150.9,59.2,20.4
0.152000,262.3,66.7,2650.2,438.4,3138.6,246.8,265.4,2665.2,3202.2,150.7,58.9,20.3
0.154000,260.0,74.8,2661.7,463.7,3138.1,211.8,265.2,2666.9,3201.7,150.5,58.5,20
