time,f1,b1,f2,b2,f3,b3,f1p,f2p,f3p,f0,intensity,harmonicity
0.025989,855.0,188.7,1252.4,486.9,2886.1,419.3,858.5,1261.7,3070.1,171.6,61.7,19.6
0.027989,857.6,181.7,1265.3,485.3,2989.3,469.4,858.1,1262.7,3075.3,171.7,61.8,20.7
0.029989,857.7,175.8,1273.1,467.1,3078.1,475.2,857.4,1264.5,3083.8,171.7,61.9,22
0.031989,856.8,171.2,1277.1,442.7,3140.6,456.8,856.6,1266.7,3095.1,171.7,62,23.1
0.033989,855.7,168.2,1278.0,418.9,3178.9,434.2,855.7,1269.4,3109,171.7,62.1,23.8
0.035989,855.1,166.2,1275.6,399.1,3200.2,412.0,854.8,1272.2,3125,171.8,62.3,23.9
0.037989,855.3,165.0,1271.7,389.0,3208.0,389.4,854.1,1275.1,3142.3,171.8,62.4,23.3
0.039989,856.7,163.6,1268.9,388.3,3209.9,365.0,853.7,1277.8,3160.5,171.8,62.6,22.3
0.041989,858.3,160.5,1269.5,391.3,3213.9,344.7,853.8,1280.2,3178.9,171.9,62.8,21.3
0.043989,859.2,154.3,1274.4,391.8,3224.9,333.6,854.4,1282,3197,171.9,62.9,20.5
0.045989,858.8,146.8,1281.1,387.7,3239.7,333.3,855.7,1283.1,3214.1,172,63,20.4
0.047989,857.7,140.6,1285.1,380.2,3250.6,342.7,857.7,1283.4,3229.7,172,63.1,21
0.049989,857.0,137.6,1284.8,374.4,3251.2,359.1,860.5,1282.8,3243.5,172.1,63.1,21.8
0.051989,857.8,137.7,1281.4,373.2,3243.0,374.4,864.1,1281.3,3255.1,172.2,63.2,22.7
0.053989,860.4,140.4,1276.1,373.9,3234.6,378.2,868.6,1278.9,3264.4,172.2,63.1,23.1
0.055989,865.8,145.0,1269.4,375.3,3231.4,367.1,873.8,1275.6,3271.1,172.3,63,22.7
0.057989,874.7,151.2,1263.5,380.9,3233.2,339.9,879.8,1271.4,3275.5,172.4,62.9,21.5
0.059989,886.3,158.2,1260.8,394.0,3236.3,300.7,886.4,1266.5,3277.5,172.5,62.8,19.9
0.061989,897.0,164.4,1262.4,413.3,3239.0,263.6,893.6,1260.9,3277.4,172.7,62.7,18.3
0.063989,906.0,170.0,1265.1,433.1,3242.5,235.8,901.2,1254.7,3275.5,172.8,62.5,17.2
0.065989,913.8,176.2,1263.3,445.2,3248.3,219.7,909.1,1248,3272.3,172.9,62.4,16.9
0.067989,920.9,184.2,1255.2,447.0,3257.1,215.7,917.1,1240.8,3268.1,173.1,62.3,17.5
0.069989,928.5,193.8,1243.4,443.2,3268.5,218.9,925.3,1233.3,3263.4,173.3,62.3,18.7
0.071989,936.7,203.7,1230.7,438.1,3279.3,224.0,933.3,1225.5,3258.7,173.4,62.2,19.7
0.073989,945.5,213.8,1218.0,434.8,3286.9,228.8,941.3,1217.3,3254.3,173.6,62.2,20.3
0.075989,953.4,223.3,1206.1,431.4,3289.6,233.3,948.9,1208.8,3250.7,173.8,62.2,19.9
0.077989,959.5,232.3,1194.2,423.4,3286.6,236.6,956.2,1199.9,3248.3,174.1,62.2,18.5
0.079989,963.8,241.3,1182.5,411.8,3278.1,238.3,963.1,1190.7,3247.2,174.3,62.2,16.6
0.081989,966.9,250.6,1171.2,399.2,3266.5,240.0,969.6,1181.1,3247.6,174.6,62.2,14.7
0.083989,970.1,259.2,1161.3,391.4,3257.1,241.6,975.5,1171.2,3249.8,174.8,62.1,13.4
0.085989,975.0,266.9,1152.0,393.2,3253.9,243.4,980.9,1160.9,3253.5,175.1,62.1,13.4
0.087989,980.7,272.4,1143.4,401.1,3256.3,246.1,985.7,1150.2,3258.8,175.4,62,14.5
0.089989,985.1,277.3,1136.0,405.0,3260.6,248.5,989.8,1139.4,3265.5,175.7,61.9,16.3
0.091989,987.3,283.0,1130.1,401.9,3264.0,249.1,993.3,1128.6,3273.3,176,61.9,18.1
0.093989,989.0,289.6,1124.3,397.5,3267.6,247.3,996.1,1117.8,3281.9,176.3,61.8,19.4
0.095989,991.7,297.8,1116.3,394.5,3273.1,243.3,998.1,1107.5,3291.1,176.7,61.7,19.8
0.097989,996.1,308.5,1105.2,393.9,3281.4,239.1,999.2,1097.8,3300.4,177,61.6,19.5
0.099989,1001.4,319.4,1093.2,395.1,3291.8,237.5,999.5,1089,3309.5,177.4,61.5,18.7
0.101989,1007.2,330.8,1081.3,396.2,3305.0,240.1,998.8,1081.5,3317.9,177.7,61.4,17.7
0.103989,1012.8,343.9,1070.3,396.0,3320.7,246.2,997.1,1075.6,3325.4,178.1,61.2,16.9
0.105989,1016.5,370.7,1060.9,379.9,3336.4,253.6,994.4,1071.6,3331.7,178.5,61.1,16.5
0.107989,1002.3,411.0,1067.8,343.9,3345.7,261.8,990.6,1069.9,3336.5,178.9,60.9,16.3
0.109989,982.4,431.1,1079.5,322.9,3346.9,270.9,985.6,1070.5,3339.7,179.3,60.8,16.1
0.111989,968.4,439.9,1087.9,314.7,3340.8,277.2,979.6,1073.8,3341,179.6,60.6,16.1
0.113989,965.2,442.9,1090.9,321.6,3331.6,278.5,972.6,1079.8,3340.6,180,60.4,16.1
0.115989,966.7,438.8,1092.7,340.9,3323.7,279.1,964.5,1088.5,3338.3,180.4,60.2,16.1
0.117989,958.4,429.7,1100.7,357.1,3320.6,283.6,955.6,1099.7,3334.4,180.8,60,16.2
0.119989,938.7,420.0,1115.0,363.0,3322.1,291.1,946,1113.2,3329,181.1,59.7,16.4
0.121989,921.9,407.3,1130.0,373.8,3324.8,297.4,935.8,1128.7,3322.2,181.5,59.4,16.6
0.123989,913.9,392.6,1145.0,400.2,3328.0,303.5,925.3,1145.8,3314.5,181.9,59.2,16.7
0.125989,912.1,378.1,1160.9,441.0,3332.6,314.8,914.6,1163.8,3306.1,182.2,58.9,16.6
0.127989,908.9,368.3,1176.7,482.8,3336.8,340.9,904.2,1182.4,3297.3,182.5,58.6,16.2
0.129989,901.5,367.1,1187.4,513.7,3333.8,383.5,894.1,1200.8,3288.5,182.9,58.3,15.7
0.131989,890.6,370.1,1195.5,539.5,3317.5,438.3,884.7,1218.4,3280,183.2,58,15.3
0.133989,878.0,373.7,1204.1,564.7,3288.0,493.9,876.2,1234.5,3272.2,183.5,57.7,15.2
0.135989,866.6,377.6,1215.7,597.6,3253.0,545.2,868.9,1248.6,3265.4,183.7,57.4,15.4
0.137989,859.7,380.6,1232.1,644.8,3226.1,588.2,863,1260.2,3259.8,184,57.1,16.2
0.139989,857.7,381.3,1259.2,713.5,3215.2,618.8,858.7,1268.8,3255.6,184.3,56.8,17.1
0.141989,858.8,378.8,1303.6,800.1,3223.1,627.8,856,1274.1,3253,184.5,56.4,18.2
0.143989,859.3,374.8,1365.5,892.3,3245.9,613.7,855.1,1275.9,3252.2,184.7,56.1,19
