time,f1,b1,f2,b2,f3,b3,f1p,f2p,f3p,f0,intensity,harmonicity
0.025989,452.5,112.8,1247.2,399.9,2762.7,723.9,478.2,1212.9,2727.6,154.7,74.9,8.9
0.027989,459.1,131.7,1232.0,366.5,2736.2,656.5,480,1212.6,2727.6,155,74.9,9.8
0.029989,472.3,145.6,1224.2,330.8,2727.8,503.8,482.9,1212.3,2727.7,155.4,74.8,10.8
0.031989,487.6,148.1,1222.8,295.4,2725.3,388.5,486.9,1211.7,2727.8,155.8,74.8,12
0.033989,500.2,139.0,1216.9,253.5,2722.9,321.4,491.9,1210.9,2728.1,156.2,74.8,13
0.035989,506.8,125.4,1201.5,215.0,2718.8,289.8,497.9,1209.9,2728.5,156.6,74.9,13.7
0.037989,511.8,112.8,1184.1,182.7,2714.1,263.6,504.6,1208.6,2729,157.1,74.9,14.3
0.039989,519.0,101.4,1174.4,153.1,2712.8,235.3,512,1207,2729.8,157.6,75,14.8
0.041989,527.3,91.6,1175.8,124.8,2715.2,217.4,519.9,1205.1,2730.9,158.1,75.1,15.1
0.043989,536.2,83.4,1183.2,99.3,2719.1,206.7,528.2,1202.8,2732.3,158.7,75.1,15.2
0.045989,545.0,78.8,1191.8,83.9,2724.4,190.4,536.7,1200,2734.1,159.2,75.2,14.9
0.047989,554.1,79.2,1199.9,77.0,2731.9,161.8,545.3,1196.9,2736.3,159.8,75.3,14.1
0.049989,563.6,85.5,1205.6,75.7,2739.8,127.4,553.9,1193.3,2738.9,160.4,75.3,13
0.051989,572.5,93.3,1206.4,77.4,2746.4,103.1,562.3,1189.3,2742,161.1,75.3,12
0.053989,580.1,99.2,1201.3,83.2,2753.1,89.0,570.3,1184.9,2745.5,161.7,75.4,11.3
0.055989,584.9,103.2,1190.7,94.6,2759.1,82.5,577.9,1180.1,2749.5,162.4,75.4,11.3
0.057989,587.7,105.5,1173.8,109.0,2763.7,80.2,585,1174.8,2754,163.1,75.4,11.8
0.059989,588.8,105.4,1153.0,114.8,2768.3,82.3,591.5,1169.3,2758.8,163.8,75.4,12.8
0.061989,589.4,103.6,1139.3,105.3,2775.1,89.4,597.4,1163.4,2764.1,164.5,75.4,13.8
0.063989,591.3,101.6,1135.0,90.4,2784.6,100.3,602.5,1157.3,2769.6,165.2,75.5,14.6
0.065989,594.9,99.8,1136.1,77.9,2793.5,110.2,607,1151,2775.4,165.9,75.6,15.2
0.067989,598.9,98.7,1138.6,70.3,2797.2,112.4,610.7,1144.6,2781.4,166.6,75.7,15.6
0.069989,603.3,97.7,1140.8,66.0,2797.5,107.5,613.7,1138.2,2787.5,167.4,75.8,16
0.071989,607.8,96.8,1142.4,64.8,2797.5,101.1,616.1,1131.8,2793.7,168.1,75.9,16.1
0.073989,611.9,96.0,1143.8,67.0,2798.4,96.0,617.8,1125.6,2799.8,168.8,76,16.1
0.075989,615.7,95.1,1144.2,73.8,2799.6,91.2,618.9,1119.6,2805.9,169.6,76.1,15.6
0.077989,618.5,94.5,1141.8,84.8,2800.0,85.9,619.6,1113.8,2811.7,170.3,76.1,14.6
0.079989,620.2,94.6,1134.6,102.7,2800.9,80.2,619.7,1108.4,2817.4,171,76.2,13.2
0.081989,621.2,95.3,1123.1,126.2,2803.2,75.1,619.6,1103.3,2822.7,171.7,76.3,12
0.083989,622.0,96.4,1108.1,149.8,2807.2,70.0,619.1,1098.6,2827.8,172.4,76.4,11.2
0.085989,622.8,97.4,1092.3,163.7,2813.4,64.8,618.4,1094.3,2832.5,173.1,76.5,11.3
0.087989,623.0,97.2,1081.0,163.2,2820.6,61.0,617.5,1090.5,2836.8,173.8,76.5,12.2
0.089989,622.4,96.1,1073.6,155.0,2828.8,59.1,616.5,1087.1,2840.8,174.5,76.6,13.6
0.091989,621.1,94.9,1069.0,146.3,2836.8,58.8,615.5,1084,2844.5,175.2,76.7,15.2
0.093989,619.6,93.5,1066.4,138.4,2844.5,58.7,614.5,1081.3,2847.9,175.8,76.7,16.5
0.095989,618.1,91.9,1065.3,130.6,2852.1,58.2,613.5,1078.9,2851,176.4,76.8,17.5
0.097989,616.5,90.4,1064.8,123.6,2859.3,58.3,612.5,1076.8,2854,177,76.9,18.2
0.099989,614.2,88.6,1064.2,116.9,2866.7,59.9,611.6,1074.8,2856.8,177.6,76.9,18.8
0.101989,611.6,86.8,1063.8,111.2,2873.1,62.7,610.8,1072.9,2859.5,178.2,77,19.3
0.103989,609.4,85.2,1063.9,106.5,2878.4,66.3,610,1071,2862.3,178.7,77,19.8
0.105989,607.9,83.5,1064.3,102.8,2881.8,69.9,609.2,1069.1,2865.1,179.2,77.1,20.4
0.107989,606.6,82.0,1064.5,101.0,2882.8,72.9,608.5,1067,2868.2,179.7,77.1,21.2
0.109989,605.2,80.7,1063.9,100.9,2882.9,75.5,607.8,1064.6,2871.4,180.2,77.2,21.9
0.111989,603.9,79.5,1062.9,102.3,2883.8,77.5,607,1062,2874.9,180.7,77.2,22.6
0.113989,603.1,78.5,1062.1,104.6,2886.2,78.3,606.2,1059.1,2878.7,181.1,77.3,23.1
0.115989,602.8,77.5,1061.4,107.9,2889.6,78.2,605.2,1055.7,2882.9,181.5,77.3,23.5
0.117989,602.8,76.3,1060.2,112.3,2893.0,77.9,604.2,1051.9,2887.5,181.9,77.3,23.8
0.119989,602.3,75.3,1057.9,118.7,2896.3,78.2,603,1047.6,2892.5,182.3,77.4,23.9
0.121989,601.4,74.5,1053.7,127.3,2900.0,79.6,601.6,1042.9,2897.9,182.6,77.4,24
0.123989,599.9,74.1,1048.0,136.2,2903.7,81.2,600.1,1037.8,2903.6,183,77.4,24.1
0.125989,598.0,74.0,1040.9,145.1,2907.5,82.4,598.3,1032.2,2909.7,183.3,77.5,24.1
0.127989,596.2,73.8,1033.6,152.2,2910.7,83.2,596.4,1026.3,2916,183.6,77.5,24
0.129989,594.2,73.5,1025.9,157.9,2913.9,84.5,594.3,1020.1,2922.5,183.9,77.5,23.9
0.131989,591.9,72.9,1017.1,162.1,2917.9,86.8,592,1013.6,2929.1,184.2,77.6,23.8
0.133989,589.4,71.8,1007.9,164.0,2922.2,89.7,589.6,1006.9,2935.7,184.4,77.6,24
0.135989,586.3,70.2,997.5,163.6,2926.8,93.1,587.1,1000.2,2942.3,184.7,77.6,24.5
0.137989,583.4,68.3,988.0,161.2,2931.2,96.4,584.4,993.4,2948.8,184.9,77.7,25.5
0.139989,580.6,66.1,979.6,157.0,2935.9,99.6,581.7,986.7,2955,185.1,77.7,26.8
0.141989,577.7,63.6,972.0,151.2,2942.3,102.3,579,980.2,2960.9,185.4,77.8,28
0.143989,575.4,61.1,966.0,144.3,2950.8,103.7,576.3,973.9,2966.4,185.6,77.8,28.9
0.145989,573.1,58.3,961.1,135.8,2961.7,104.6,573.6,968,2971.4,185.8,77.9,29.2
0.147989,571.2,55.4,957.4,127.1,2972.4,105.7,571,962.4,2975.9,186,77.9,29.1
0.149989,569.4,52.3,954.3,118.5,2981.7,107.2,568.5,957.3,2979.9,186.1,78,28.6
0.151989,567.6,49.1,951.1,110.1,2989.5,107.9,566.2,952.7,2983.2,186.3,78,28
0.153989,565.9,46.3,948.2,102.6,2995.7,106.6,564,948.5,2986,186.5,78.1,27.5
0.155989,564.2,43.6,945.5,95.5,3001.3,103.1,562,944.9,2988.2,186.7,78.2,27.2
0.157989,562.4,40.9,942.8,88.3,3006.6,98.7,560.1,941.8,2989.8,186.8,78.3,27.2
0.159989,560.7,38.2,940.4,81.5,3010.8,95.6,558.5,939.1,2990.8,187,78.4,27.2
0.161989,559.0,35.4,938.2,74.8,3014.3,94.9,557.1,937,2991.4,187.1,78.5,27.1
0.163989,557.6,33.0,936.4,69.1,3016.7,96.9,555.8,935.3,2991.6,187.3,78.6,27
0.165989,556.3,30.8,935.1,64.2,3017.6,100.7,554.8,934,2991.4,187.5,78.7,26.6
0.167989,555.1,28.9,934.2,60.0,3017.1,105.8,553.9,933,2990.9,187.6,78.8,26.1
0.169989,554.1,27.4,933.8,57.0,3015.2,111.1,553.2,932.3,2990.3,187.7,78.9,25.5
0.171989,553.1,26.1,933.8,54.9,3011.2,117.3,552.6,931.9,2989.5,187.9,79,24.8
0.173989,552.2,25.1,933.8,53.7,3003.8,123.2,552.1,931.6,2988.8,188,79.1,24
0.175989,551.3,24.4,933.7,53.2,2991.1,126.5,551.8,931.5,2988,188.2,79.2,23.1
0.177989,550.4,24.0,933.3,53.6,2973.0,123.2,551.6,931.4,2987.3,188.3,79.3,21.9
0.179989,549.5,24.2,932.6,55.3,2955.3,112.5,551.4,931.4,2986.8,188.4,79.3,20.6
0.181989,548.3,25.0,930.7,59.0,2940.3,97.4,551.3,931.4,2986.5,188.5,79.2,19.4
0.183989,546.7,26.6,927.2,64.7,2930.3,83.9,551.3,931.4,2986.4,188.6,79.1,18.3
