time,f1,b1,f2,b2,f3,b3,f1p,f2p,f3p,f0,intensity,harmonicity
0.026011,438.5,205.0,1248.6,250.4,2383.9,346.6,465.1,1218.7,2412.1,106.7,60.4,10.3
0.028011,451.6,186.6,1232.8,222.6,2395.3,314.9,468,1214.8,2414.2,106.4,61.1,18.3
0.030011,468.3,188.7,1211.2,205.4,2419.0,282.8,472.5,1208.6,2417.5,106.2,61.6,17.6
0.032011,488.3,204.4,1187.4,193.8,2439.9,250.4,478.6,1200.2,2421.9,105.9,62,13
0.034011,502.9,209.1,1172.3,176.8,2449.1,222.9,486,1190.3,2427.2,105.6,62.4,8.8
0.036011,510.0,197.7,1164.9,154.4,2453.3,200.0,494.3,1179.1,2433.1,105.2,62.8,8.5
0.038011,514.3,181.6,1158.3,132.4,2456.0,183.6,503.4,1167.1,2439.4,104.9,63.2,8.4
0.040011,520.5,169.0,1147.3,116.4,2455.1,181.7,512.7,1155,2445.8,104.6,63.6,8.1
0.042011,529.1,157.6,1133.3,106.1,2447.0,196.3,522.1,1143.1,2452.2,104.3,64.1,7.6
0.044011,536.0,141.5,1123.6,94.9,2439.8,203.8,531.1,1131.9,2458.3,104,64.6,7.5
0.046011,540.8,124.5,1119.1,81.9,2443.8,192.8,539.5,1121.8,2464,103.7,65,7.8
0.048011,544.0,111.4,1116.3,70.4,2455.3,176.3,547.2,1113,2469.5,103.4,65.4,8.5
0.050011,546.7,110.1,1113.3,65.4,2469.4,167.3,553.9,1105.6,2474.6,103.1,65.7,9.4
0.052011,550.6,126.2,1109.6,69.9,2481.9,170.6,559.6,1099.8,2479.6,102.8,65.9,10.3
0.054011,556.3,140.1,1105.6,73.5,2489.9,172.7,564.3,1095.4,2484.6,102.6,66.1,11.3
0.056011,561.5,134.9,1101.7,67.6,2496.3,164.2,568,1092.4,2489.7,102.3,66.3,12
0.058011,565.2,121.5,1098.1,58.0,2503.5,152.0,570.9,1090.4,2495.1,102.1,66.4,12.6
0.060011,568.2,116.1,1094.6,52.9,2510.2,151.3,573,1089.4,2500.9,101.9,66.5,13.2
0.062011,572.1,128.8,1091.3,57.8,2512.8,179.3,574.6,1089,2507.4,101.7,66.5,13.8
0.064011,577.2,143.8,1087.5,65.3,2512.1,223.1,575.9,1088.8,2514.6,101.5,66.6,14.4
0.066011,580.9,141.1,1083.8,63.5,2515.1,244.6,577.1,1088.7,2522.4,101.3,66.6,15
0.068011,582.7,129.7,1081.1,56.0,2524.4,243.4,578.3,1088.4,2530.8,101.2,66.6,15.7
0.070011,583.5,127.7,1079.9,53.0,2537.3,245.0,579.7,1087.7,2539.7,101,66.5,16.5
0.072011,585.7,147.7,1080.6,62.3,2550.1,270.1,581.4,1086.6,2548.8,100.9,66.4,17.2
0.074011,590.0,172.1,1080.9,77.6,2560.5,298.8,583.5,1084.9,2557.9,100.8,66.3,17.8
0.076011,593.2,175.6,1079.3,81.8,2568.6,303.7,585.9,1082.8,2566.7,100.7,66.2,18.3
0.078011,593.6,166.3,1076.9,75.8,2575.4,293.4,588.7,1080.4,2574.8,100.6,66.1,18.8
0.080011,592.5,165.3,1075.3,73.3,2581.2,290.4,591.7,1077.8,2582.1,100.6,65.9,19.1
0.082011,592.8,188.3,1075.2,87.3,2585.7,310.0,594.8,1075.1,2588.3,100.5,65.7,19.4
0.084011,596.6,215.5,1074.9,110.7,2591.4,330.4,597.9,1072.6,2593.1,100.5,65.6,19.6
0.086011,599.5,218.6,1073.6,118.4,2597.1,327.5,600.7,1070.6,2596.4,100.4,65.4,19.9
0.088011,599.0,208.5,1072.6,110.7,2600.3,311.2,603.1,1069.2,2598.2,100.4,65.3,20.2
0.090011,597.0,209.8,1072.8,108.4,2598.3,300.5,604.8,1068.6,2598.4,100.4,65.1,20.4
0.092011,597.6,237.9,1075.0,128.6,2592.1,307.9,605.7,1068.9,2597.2,100.3,64.9,20.5
0.094011,602.3,264.4,1077.8,157.0,2591.1,318.0,605.7,1070.2,2594.8,100.3,64.8,20.5
0.096011,604.6,262.6,1079.6,160.5,2594.8,314.2,604.7,1072.6,2591.2,100.3,64.6,20.1
0.098011,602.1,247.8,1080.6,145.0,2597.3,301.9,602.7,1075.9,2586.9,100.3,64.3,19.4
0.100011,596.0,242.8,1081.4,134.8,2592.5,295.1,599.6,1080.3,2582,100.2,64.1,18.4
0.102011,589.5,262.9,1083.5,150.8,2575.2,307.5,595.6,1085.4,2576.8,100.2,63.7,17.4
0.104011,589.2,285.7,1087.2,186.6,2559.2,326.4,590.7,1091.1,2571.6,100.2,63.4,16.5
0.106011,591.4,284.7,1091.8,203.5,2557.7,329.6,585.2,1097.3,2566.5,100.2,63,15.9
0.108011,589.9,273.0,1095.9,196.5,2562.8,318.2,579.3,1103.7,2561.8,100.1,62.7,15.6
0.110011,583.4,273.9,1099.7,195.2,2563.6,303.6,573.2,1110,2557.6,100.1,62.3,15.4
0.112011,574.5,300.8,1104.9,232.3,2554.9,295.5,567.2,1116.1,2553.9,100.1,61.9,15.2
0.114011,571.6,322.0,1112.2,296.5,2546.8,290.9,561.5,1121.7,2550.9,100,61.5,14.9
0.116011,570.8,313.4,1119.4,321.5,2545.9,279.1,556.5,1126.5,2548.4,100,61,15.4
0.118011,565.8,293.9,1125.4,299.2,2548.8,261.8,552.3,1130.5,2546.5,99.9,60.6,20.4
0.120011,554.5,285.9,1133.6,266.5,2551.7,248.8,549.2,1133.4,2545.2,99.9,60,26.1
0.122011,532.8,311.3,1148.3,249.5,2548.9,251.6,547.2,1135.3,2544.5,99.9,59.4,27.6
0.124011,506.3,355.2,1162.3,243.9,2536.9,262.6,546.6,1135.9,2544.2,99.8,58.7,20
