time,f1,b1,f2,b2,f3,b3,f1p,f2p,f3p,f0,intensity,harmonicity
0.025011,466.4,34.6,1571.9,512.0,2709.7,147.3,479,1593.7,2704.4,161.2,61.7,6
0.027011,474.4,29.2,1588.7,542.2,2709.9,159.6,479.5,1589,2703.4,160.9,62.2,7.2
0.029011,479.7,25.4,1588.2,546.7,2708.5,158.6,480.2,1581.3,2701.8,160.6,62.6,8.6
0.031011,483.3,23.4,1577.3,530.6,2706.1,146.5,481.2,1570.9,2699.6,160.3,62.9,9.8
0.033011,486.1,22.7,1563.4,496.2,2702.1,130.1,482.5,1558.2,2696.8,160,63.2,10.9
0.035011,487.8,23.0,1547.1,456.1,2695.4,116.8,484.2,1543.5,2693.6,159.6,63.3,11.7
0.037011,489.0,24.5,1529.1,434.4,2686.5,110.6,486.4,1527.3,2690,159.2,63.4,12
0.039011,491.2,27.4,1511.2,437.9,2676.9,109.6,488.9,1510,2686,158.9,63.3,11.9
0.041011,494.5,31.8,1492.6,452.8,2668.8,110.8,491.9,1492.3,2681.9,158.5,63.1,11.6
0.043011,497.6,38.1,1473.7,467.7,2663.0,113.5,495.3,1474.4,2677.7,158.1,62.9,11.4
0.045011,500.5,45.9,1455.9,481.3,2659.5,116.8,499,1457,2673.5,157.7,62.5,11.5
0.047011,504.3,54.3,1439.5,488.4,2658.5,120.2,503.1,1440.4,2669.4,157.4,62.1,11.9
0.049011,509.4,62.3,1423.7,481.1,2659.9,124.5,507.5,1424.9,2665.5,157,61.7,12.3
0.051011,514.7,69.0,1408.6,462.9,2662.5,129.2,512,1410.8,2661.8,156.6,61.3,12.9
0.053011,519.3,73.0,1398.0,446.0,2664.7,132.0,516.6,1398.3,2658.6,156.3,61.1,13.8
0.055011,523.4,75.6,1389.5,431.6,2666.3,134.3,521.2,1387.4,2655.8,155.9,60.9,14.9
0.057011,526.5,77.0,1380.5,413.2,2667.0,137.3,525.6,1378.2,2653.4,155.6,60.8,16.6
0.059011,529.0,76.5,1372.4,386.3,2665.7,137.4,529.8,1370.5,2651.5,155.3,60.7,18.9
0.061011,531.4,75.5,1367.1,356.3,2661.6,133.4,533.6,1364.4,2650.2,154.9,60.7,21.3
0.063011,533.5,75.0,1363.4,328.2,2656.0,127.8,537,1359.5,2649.4,154.7,60.7,23.3
0.065011,535.4,73.8,1359.2,299.2,2651.3,123.2,539.9,1355.7,2649.1,154.4,60.7,24.6
0.067011,537.4,71.4,1354.5,268.0,2648.6,121.0,542.3,1352.7,2649.3,154.1,60.8,24.8
0.069011,539.4,69.3,1349.3,239.9,2647.2,121.9,544.2,1350.3,2649.8,153.9,60.8,24.3
0.071011,540.8,66.8,1343.0,217.7,2646.0,125.3,545.7,1348.1,2650.8,153.6,60.8,23.4
0.073011,542.5,64.2,1337.9,200.4,2645.1,127.6,546.7,1346.1,2651.9,153.4,60.9,22.5
0.075011,545.1,63.0,1335.9,188.8,2645.7,126.7,547.4,1343.9,2653.3,153.2,60.9,22
0.077011,547.4,62.6,1335.0,182.8,2647.9,125.4,548,1341.5,2654.8,153,60.9,22.1
0.079011,549.4,61.3,1333.4,179.0,2650.6,126.0,548.5,1338.5,2656.2,152.8,61,22.3
0.081011,551.4,60.3,1331.4,178.9,2653.9,129.3,549,1335.1,2657.6,152.7,61,22.7
0.083011,553.5,60.4,1329.0,184.1,2657.4,133.2,549.8,1331.1,2658.7,152.5,61,23.2
0.085011,555.8,60.8,1327.0,192.7,2659.9,133.0,550.9,1326.4,2659.6,152.4,61.1,23.5
0.087011,558.5,61.6,1325.6,204.0,2661.4,129.8,552.4,1321.2,2660.1,152.2,61.1,23.9
0.089011,561.1,62.8,1323.3,221.6,2662.3,129.4,554.3,1315.3,2660.3,152.1,61.1,24.2
0.091011,563.3,63.3,1318.3,246.0,2662.2,132.4,556.7,1308.9,2659.9,152,61.1,24.5
0.093011,565.0,62.6,1310.6,271.2,2660.9,137.6,559.5,1301.9,2659.1,151.9,61.2,24.8
0.095011,566.7,62.1,1301.6,294.9,2659.1,143.5,562.7,1294.5,2657.8,151.8,61.2,25.3
0.097011,568.1,61.9,1291.7,321.5,2657.3,147.2,566.1,1286.6,2656,151.6,61.3,25.9
0.099011,569.1,61.1,1282.3,347.2,2655.4,145.8,569.4,1278.2,2653.8,151.5,61.3,26.7
0.101011,570.0,61.0,1273.9,370.3,2653.5,140.5,572.7,1269.3,2651,151.4,61.3,27.5
0.103011,570.9,61.6,1265.8,392.6,2651.0,132.3,575.4,1259.9,2647.9,151.3,61.4,28.1
0.105011,571.3,62.0,1255.6,414.8,2647.2,123.2,577.6,1250,2644.5,151.3,61.4,28.2
0.107011,571.1,62.1,1242.0,433.0,2642.8,116.1,578.8,1239.5,2640.8,151.2,61.4,27.8
0.109011,570.4,62.9,1223.8,442.9,2639.0,111.8,578.9,1228.4,2636.8,151.1,61.4,26.9
0.111011,568.6,63.4,1201.8,440.8,2635.1,109.1,577.6,1216.7,2632.8,151,61.4,25.7
0.113011,566.3,63.6,1180.4,429.0,2629.4,107.0,574.9,1204.2,2628.7,150.9,61.4,24.6
0.115011,563.7,64.8,1162.7,410.2,2622.1,105.2,570.5,1191.2,2624.6,150.8,61.3,23.5
0.117011,560.2,66.0,1149.2,379.3,2615.2,102.5,564.5,1177.5,2620.6,150.7,61.2,22.6
0.119011,556.1,66.3,1141.5,339.3,2610.4,98.0,557,1163.3,2616.7,150.6,61.1,21.8
0.121011,551.1,67.2,1138.3,298.4,2607.2,93.6,547.9,1148.7,2613,150.5,61,20.9
0.123011,545.0,68.8,1137.6,259.9,2605.6,92.1,537.6,1133.8,2609.6,150.4,60.8,20
0.125011,537.0,69.3,1136.4,220.2,2605.4,93.2,526.3,1118.9,2606.4,150.3,60.6,19.1
0.127011,527.0,68.7,1133.2,188.5,2605.2,95.8,514.4,1104.1,2603.6,150.2,60.4,18.1
0.129011,515.4,68.8,1127.9,171.9,2603.3,100.1,502.1,1089.9,2601,150.1,60.2,17.1
0.131011,503.2,68.6,1119.6,167.1,2600.0,106.8,489.9,1076.3,2598.8,150,59.9,16.1
0.133011,491.4,68.2,1106.7,169.0,2597.8,114.8,478.3,1063.8,2596.9,149.9,59.6,15.1
0.135011,478.7,69.8,1087.6,175.8,2598.0,123.4,467.5,1052.7,2595.2,149.8,59.2,14.1
0.137011,465.1,72.6,1063.4,186.8,2598.4,133.4,458.2,1043.1,2593.9,149.7,58.7,13.2
0.139011,452.0,74.4,1036.0,199.8,2596.6,146.0,450.5,1035.4,2592.9,149.6,58.2,12.4
0.141011,438.8,75.5,1006.9,208.4,2593.4,163.0,444.8,1029.7,2592.2,149.5,57.6,11.6
0.143011,422.6,76.4,977.8,201.0,2590.1,187.7,441.2,1026.3,2591.8,149.5,56.9,10.7
0.145011,406.7,77.2,956.6,179.2,2586.6,218.4,440,1025.1,2591.7,149.4,56.1,9.8
