time,f1,b1,f2,b2,f3,b3,f1p,f2p,f3p,f0,intensity,harmonicity
0.025011,577.7,156.9,2105.0,211.5,3080.5,189.0,656.3,2148.2,3048,229.7,56.4,11.9
0.027011,603.1,156.3,2117.8,220.4,3077.5,185.7,656.9,2148.5,3047.2,229.9,56.5,13.3
0.029011,621.1,144.4,2131.0,231.0,3073.7,191.9,657.9,2149,3046,230.2,56.6,14.6
0.031011,634.1,127.7,2138.7,245.1,3070.5,210.6,659.4,2149.6,3044.2,230.4,56.8,15.8
0.033011,644.3,110.1,2138.0,261.5,3067.8,240.3,661.3,2150.4,3042,230.7,57,16.7
0.035011,653.3,94.5,2132.6,276.8,3063.4,273.8,663.5,2151.4,3039.3,230.9,57.3,17.4
0.037011,663.1,82.8,2130.3,281.4,3047.2,290.4,666.2,2152.5,3036.2,231.2,57.6,17.6
0.039011,673.6,75.7,2136.8,271.3,3017.0,273.4,669.2,2153.7,3032.7,231.5,57.9,17.5
0.041011,683.7,69.8,2149.0,259.7,2985.0,246.7,672.6,2155,3028.8,231.8,58.2,17.2
0.043011,692.2,64.0,2158.4,252.0,2957.9,228.8,676.4,2156.4,3024.6,232.1,58.6,16.9
0.045011,699.0,59.1,2159.3,247.2,2939.6,221.4,680.5,2157.8,3020.1,232.4,58.9,16.9
0.047011,705.3,55.3,2158.2,246.9,2935.7,221.9,684.9,2159.2,3015.3,232.7,59.2,17
0.049011,711.0,52.6,2165.4,253.6,2948.7,225.5,689.7,2160.6,3010.3,233,59.5,17.2
0.051011,716.3,50.3,2183.8,267.9,2968.9,227.2,694.7,2161.9,3005.1,233.4,59.8,17.4
0.053011,720.4,48.2,2207.7,287.4,2984.9,230.2,700,2163.2,2999.9,233.6,60,17.7
0.055011,723.8,46.8,2225.7,304.2,2993.9,237.6,705.6,2164.3,2994.5,233.9,60.2,18.1
0.057011,727.2,46.3,2227.2,307.0,2996.7,243.0,711.4,2165.3,2989.1,234.2,60.3,18.7
0.059011,731.1,46.9,2216.0,303.8,2996.4,247.7,717.4,2166.2,2983.7,234.5,60.4,19.3
0.061011,735.4,48.8,2200.2,304.7,2996.3,251.5,723.6,2166.8,2978.4,234.7,60.5,20
0.063011,740.3,51.7,2185.2,309.5,2996.2,248.7,730,2167.2,2973.2,235,60.6,20.7
0.065011,746.3,55.3,2172.8,315.9,2994.7,240.6,736.6,2167.3,2968.2,235.2,60.6,21.1
0.067011,752.4,58.5,2163.9,321.8,2991.1,235.1,743.3,2167.2,2963.3,235.4,60.5,21.3
0.069011,758.0,61.2,2157.4,326.1,2986.7,235.3,750.1,2166.7,2958.7,235.6,60.4,21.3
0.071011,763.0,63.8,2152.6,329.7,2983.7,242.7,756.9,2165.9,2954.5,235.7,60.3,21.2
0.073011,767.7,67.2,2149.0,339.0,2982.6,261.7,763.8,2164.7,2950.5,235.8,60.2,21.2
0.075011,772.7,71.4,2145.1,361.9,2981.5,298.4,770.8,2163.1,2947,235.9,60.1,21.4
0.077011,778.5,75.2,2138.7,388.6,2975.5,337.4,777.8,2161.2,2943.8,236,59.9,21.9
0.079011,786.1,77.6,2127.5,407.4,2962.7,355.1,784.8,2158.9,2941.1,236.1,59.8,22.7
0.081011,794.9,78.9,2116.9,427.5,2954.4,352.6,791.7,2156.1,2938.8,236.1,59.6,23.6
0.083011,804.4,79.8,2115.5,461.0,2956.8,344.3,798.6,2153,2937.1,236.1,59.5,24.3
0.085011,813.3,80.4,2126.3,501.5,2960.0,338.9,805.4,2149.4,2935.8,236.1,59.3,24.8
0.087011,821.8,80.8,2143.1,538.5,2954.7,340.0,812.1,2145.5,2935.1,236,59.2,24.8
0.089011,829.7,81.2,2154.5,569.0,2942.9,347.9,818.8,2141.1,2934.9,235.9,59.1,24.6
0.091011,837.5,81.8,2153.7,597.4,2932.3,358.5,825.2,2136.3,2935.3,235.8,59,24.3
0.093011,845.2,82.0,2141.6,627.4,2928.5,364.6,831.6,2131.2,2936.3,235.7,58.9,23.9
0.095011,852.1,81.0,2126.3,659.2,2929.0,358.5,837.8,2125.7,2937.7,235.5,58.8,23.6
0.097011,858.8,79.0,2113.1,698.0,2926.3,342.3,843.8,2119.8,2939.8,235.3,58.8,23.4
0.099011,865.0,76.8,2105.5,754.6,2917.6,331.6,849.6,2113.7,2942.4,235,58.8,23.3
0.101011,870.6,75.7,2108.0,829.0,2909.5,340.9,855.2,2107.2,2945.5,234.8,58.8,23.2
0.103011,874.5,75.5,2124.9,867.3,2916.3,371.9,860.6,2100.5,2949.1,234.4,58.8,23
0.105011,877.1,74.4,2140.1,808.4,2942.8,396.5,865.8,2093.5,2953.2,234.1,58.7,22.7
0.107011,879.1,71.2,2132.2,682.9,2968.2,377.2,870.8,2086.4,2957.8,233.7,58.7,22.2
0.109011,880.9,67.2,2115.4,580.7,2975.9,338.7,875.5,2079,2962.8,233.3,58.6,21.6
0.111011,882.3,64.0,2101.1,536.5,2974.1,309.3,880,2071.5,2968.2,232.9,58.5,20.9
0.113011,883.0,62.4,2089.8,549.8,2975.2,293.5,884.2,2064,2974.1,232.4,58.5,20.3
0.115011,882.8,62.6,2076.1,601.1,2984.2,285.6,888.2,2056.3,2980.2,231.9,58.4,19.8
0.117011,881.8,64.2,2058.0,656.3,2996.9,284.3,891.9,2048.7,2986.6,231.4,58.3,19.5
0.119011,880.3,66.3,2045.8,682.1,3004.0,294.0,895.4,2041,2993.3,230.8,58.2,19.3
0.121011,878.7,68.8,2048.3,688.7,2994.9,319.3,898.6,2033.4,3000.3,230.2,58.1,19.1
0.123011,876.9,72.6,2051.3,696.3,2973.6,345.6,901.6,2025.9,3007.4,229.6,58,18.9
0.125011,874.7,78.1,2037.9,689.1,2960.5,356.8,904.3,2018.5,3014.6,229,57.9,18.6
0.127011,872.5,84.9,2010.9,648.9,2969.6,356.8,906.9,2011.3,3021.9,228.3,57.7,17.9
0.129011,870.7,92.9,1981.9,587.3,2994.3,360.3,909.1,2004.2,3029.3,227.5,57.5,17.1
0.131011,869.8,101.7,1958.3,522.1,3021.1,373.0,911.2,1997.4,3036.6,226.8,57.3,16.2
0.133011,869.4,112.1,1938.4,449.6,3046.1,390.5,913,1990.8,3044,226,57.1,15.5
0.135011,869.7,124.4,1922.8,375.4,3066.2,407.4,914.7,1984.4,3051.2,225.2,56.9,15.2
0.137011,871.4,138.9,1913.7,313.8,3075.4,414.4,916.1,1978.4,3058.3,224.4,56.7,15.6
0.139011,875.3,154.2,1910.6,267.7,3073.8,393.6,917.4,1972.7,3065.2,223.5,56.5,16.6
0.141011,881.0,165.9,1911.7,235.0,3072.7,346.1,918.5,1967.3,3071.9,222.6,56.3,17.6
0.143011,887.4,173.5,1914.6,209.7,3077.7,293.8,919.4,1962.2,3078.3,221.7,56.2,18.4
0.145011,893.9,177.9,1918.3,191.3,3085.2,252.4,920.2,1957.6,3084.5,220.8,56.1,18.5
0.147011,901.5,180.4,1923.0,180.5,3092.3,225.2,920.8,1953.2,3090.4,219.8,56.1,17.7
0.149011,911.8,182.5,1929.9,178.7,3099.3,212.0,921.3,1949.3,3095.9,218.8,56.1,16.2
0.151011,924.3,185.1,1939.0,186.8,3106.3,213.9,921.7,1945.7,3101.1,217.8,56.1,14.4
0.153011,938.3,188.4,1949.8,202.4,3113.3,227.3,922,1942.4,3105.8,216.8,56.2,12.7
0.155011,952.3,191.4,1959.7,220.5,3118.5,246.0,922.3,1939.6,3110.2,215.8,56.3,11.6
0.157011,965.1,192.8,1966.7,236.0,3120.3,264.1,922.4,1937,3114.1,214.7,56.4,11
0.159011,974.1,191.6,1969.7,244.7,3119.3,275.0,922.5,1934.8,3117.6,213.7,56.5,10.9
0.161011,979.1,187.7,1969.0,246.0,3120.1,273.9,922.5,1933,3120.7,212.6,56.6,10.9
0.163011,980.1,183.0,1963.3,239.1,3126.1,255.1,922.5,1931.4,3123.3,211.6,56.8,11
0.165011,977.5,179.9,1951.9,225.4,3135.1,223.1,922.4,1930.2,3125.4,210.5,56.9,10.8
0.167011,971.6,179.7,1936.8,209.0,3141.3,192.6,922.3,1929.2,3127.1,209.5,57.1,10.5
0.169011,964.4,181.7,1923.9,196.4,3141.3,177.0,922.2,1928.4,3128.3,208.4,57.3,10
0.171011,956.7,184.9,1915.6,190.1,3136.9,177.0,922.1,1927.9,3129.1,207.4,57.4,9.5
0.173011,949.0,187.6,1913.5,189.9,3131.6,190.6,922,1927.6,3129.4,206.4,57.6,9.1
0.175011,941.8,187.7,1918.2,192.4,3128.8,214.1,921.8,1927.4,3129.4,205.3,57.7,8.8
0.177011,936.3,184.7,1928.1,192.1,3128.6,237.9,921.7,1927.4,3128.9,204.4,57.9,8.7
0.179011,932.1,179.1,1940.1,187.0,3128.8,252.6,921.5,1927.5,3128,203.4,58,8.7
0.181011,928.9,172.5,1951.4,178.2,3128.2,251.9,921.4,1927.7,3126.8,202.4,58.1,8.8
0.183011,925.9,166.6,1960.6,169.7,3128.0,240.3,921.2,1927.9,3125.3,201.5,58.2,8.9
0.185011,921.9,162.2,1967.4,163.9,3129.4,227.7,921,1928.2,3123.4,200.6,58.2,9
0.187011,917.7,159.1,1971.0,160.7,3131.2,219.3,920.9,1928.5,3121.2,199.8,58.3,9
0.189011,914.7,156.4,1971.1,156.4,3132.1,213.2,920.6,1928.8,3118.8,198.9,58.2,9.1
0.191011,913.3,153.9,1967.3,148.8,3130.8,208.6,920.4,1929.1,3116.1,198.1,58.2,9.1
0.193011,912.6,152.1,1959.8,137.9,3127.7,206.8,920.1,1929.3,3113.2,197.4,58.1,9.1
0.195011,911.4,151.7,1949.8,124.4,3123.8,210.5,919.8,1929.4,3110.2,196.6,57.9,9.1
0.197011,909.6,152.7,1941.7,112.5,3118.7,222.8,919.5,1929.5,3107,195.9,57.8,8.8
0.199011,907.8,154.7,1938.6,106.0,3109.7,245.3,919,1929.5,3103.7,195.3,57.6,8.3
0.201011,906.3,157.5,1940.0,106.4,3097.3,268.9,918.5,1929.3,3100.3,194.6,57.4,7.9
0.203011,904.9,161.5,1940.9,110.2,3084.8,280.7,917.9,1929.1,3096.9,194,57.3,7.8
0.205011,903.6,167.6,1934.8,110.8,3074.5,280.1,917.2,1928.7,3093.4,193.5,57.1,8.2
0.207011,901.5,175.3,1922.6,105.2,3065.2,277.1,916.4,1928.2,3089.9,192.9,57,9.6
0.209011,898.7,181.2,1912.8,96.6,3059.9,279.9,915.4,1927.6,3086.5,192.5,56.8,11.6
0.211011,896.2,182.9,1911.5,90.5,3062.3,287.4,914.3,1926.8,3083.2,192,56.8,13.8
0.213011,895.1,182.8,1914.9,87.0,3070.0,288.7,913,1926,3079.9,191.5,56.7,15.9
0.215011,894.9,184.9,1915.4,84.2,3075.7,284.3,911.5,1925.1,3076.7,191.1,56.7,17.4
0.217011,894.6,190.7,1910.9,80.3,3076.7,279.8,909.8,1924,3073.7,190.8,56.6,18.2
0.219011,893.6,197.2,1905.2,75.2,3076.1,277.6,907.9,1922.9,3070.8,190.4,56.6,18.6
0.221011,891.9,200.2,1902.5,70.8,3079.9,278.9,905.8,1921.8,3068.1,190.1,56.5,18.7
0.223011,889.6,199.5,1902.9,68.3,3089.4,282.8,903.4,1920.6,3065.6,189.7,56.3,18.8
0.225011,888.0,198.9,1903.1,67.5,3095.6,287.5,900.8,1919.3,3063.2,189.4,56.2,18.9
0.227011,887.3,201.1,1900.8,67.3,3091.2,295.1,897.9,1918.1,3061.1,189.2,56.1,19
0.229011,886.6,205.2,1897.0,67.5,3077.0,307.0,894.7,1916.9,3059.2,188.9,55.9,19.2
0.231011,884.0,209.1,1894.5,69.4,3065.0,322.6,891.3,1915.8,3057.5,188.6,55.8,19.3
0.233011,879.5,211.7,1894.5,74.0,3067.0,335.4,887.5,1914.7,3056.1,188.4,55.6,19.3
0.235011,875.0,214.4,1895.4,79.7,3072.5,341.0,883.4,1913.7,3054.9,188.1,55.4,19.2
0.237011,872.0,218.7,1895.1,84.0,3067.2,344.1,879.1,1912.8,3053.9,187.8,55.3,18.9
0.239011,870.2,224.1,1893.5,85.4,3044.7,350.2,874.4,1912.1,3053.2,187.6,55.1,18.6
0.241011,867.8,227.6,1891.7,84.4,3006.2,361.2,869.3,1911.5,3052.8,187.3,54.9,18.1
0.243011,864.3,227.1,1891.0,82.2,2967.0,373.1,864,1911.1,3052.5,187,54.7,17.7
0.245011,860.8,225.0,1890.9,79.2,2938.4,384.4,858.3,1911,3052.5,186.7,54.4,17.2
0.247011,859.0,224.1,1890.5,75.5,2923.5,396.2,852.3,1911.1,3052.7,186.3,54.2,16.7
0.249011,856.3,226.7,1889.2,73.5,2928.4,431.5,846,1911.4,3053.2,185.9,53.9,16.1
0.251011,851.2,231.4,1888.0,74.0,2972.6,506.3,839.4,1912,3053.8,185.5,53.6,15.4
0.253011,847.9,229.7,1888.5,73.5,3064.6,553.1,832.5,1912.8,3054.6,185,53.3,14.9
0.255011,845.0,219.9,1891.0,72.5,3153.0,511.1,825.4,1914,3055.7,184.4,52.9,14.3
0.257011,838.4,213.2,1895.1,74.6,3187.7,445.8,817.9,1915.4,3056.9,183.8,52.6,13.8
0.259011,826.8,216.7,1900.6,81.2,3177.4,404.3,810.2,1917.2,3058.2,183.1,52.2,13.2
0.261011,810.3,228.5,1907.3,92.5,3141.6,383.0,802.3,1919.3,3059.7,182.3,51.9,12.7
0.263011,789.7,242.2,1915.8,108.5,3097.1,369.9,794.2,1921.6,3061.3,181.5,51.5,12.4
0.265011,768.5,253.7,1925.4,127.9,3058.2,372.6,785.9,1924.3,3063.1,180.5,51.2,12.4
0.267011,748.3,264.4,1933.5,148.4,3031.2,396.2,777.4,1927.3,3064.9,179.4,50.9,13
0.269011,733.0,275.9,1940.2,163.9,3018.1,409.8,768.7,1930.5,3066.9,178.1,50.6,14
0.271011,727.6,288.2,1947.0,168.3,3023.0,385.4,760,1934,3068.9,176.8,50.4,15.2
0.273011,729.3,299.1,1953.6,165.8,3039.9,339.1,751.2,1937.8,3070.9,175.3,50.2,16.2
0.275011,732.0,304.8,1958.3,161.8,3060.0,293.3,742.3,1941.8,3073.1,173.7,50,16.7
0.277011,730.6,308.1,1962.8,162.6,3083.8,258.8,733.4,1946.1,3075.2,171.9,49.8,16.8
0.279011,729.2,310.0,1971.6,173.1,3107.6,240.6,724.5,1950.5,3077.4,170,49.8,16.5
0.281011,733.6,309.2,1991.7,201.0,3129.0,239.2,715.6,1955.1,3079.5,167.9,49.8,16
0.283011,744.1,302.7,2029.0,254.8,3145.5,255.1,706.9,1959.8,3081.7,165.7,49.8,15.2
0.285011,754.5,289.1,2073.7,328.8,3153.5,277.6,698.2,1964.7,3083.8,163.4,50,14
0.287011,758.2,275.2,2093.6,397.3,3147.0,288.6,689.7,1969.6,3085.9,160.9,50.1,12
0.289011,755.4,264.7,2075.1,419.0,3131.9,276.1,681.4,1974.5,3088,158.4,50.3,9.4
0.291011,746.9,256.2,2044.3,380.2,3118.2,253.9,673.2,1979.4,3090,0,50.6,6.6
0.293011,724.3,255.6,2025.5,309.3,3105.5,255.6,665.4,1984.4,3091.9,0,50.9,4.3
0.295011,687.9,254.5,2019.1,259.7,3083.5,292.1,657.8,1989.2,3093.8,0,51.2,3
0.297011,662.1,247.0,2015.2,239.0,3061.9,320.0,650.5,1993.9,3095.5,0,51.5,3.1
0.299011,652.4,246.8,2012.3,230.8,3056.9,318.9,643.6,1998.5,3097.2,0,51.6,4.3
0.301011,647.1,253.0,2010.0,227.5,3063.3,306.4,637.1,2002.9,3098.8,0,51.6,5.9
0.303011,638.4,264.8,2007.6,229.9,3076.1,297.5,630.9,2007.1,3100.3,0,51.4,7.3
0.305011,617.0,286.0,2004.3,241.1,3092.0,310.3,625.2,2011.1,3101.6,0,51.3,8
0.307011,588.0,303.4,1999.8,256.7,3104.5,366.5,620,2014.8,3102.9,0,51.2,7.4
0.309011,571.2,298.0,1995.6,270.6,3118.1,440.9,615.2,2018.2,3104,0,51.2,6.2
0.311011,565.5,289.9,1993.7,270.7,3130.7,463.7,611,2021.2,3105.1,0,51.3,4.7
0.313011,563.3,294.9,1993.6,249.6,3129.6,428.4,607.3,2023.9,3105.9,0,51.4,3.5
0.315011,559.9,316.5,1992.4,213.1,3121.3,361.3,604.1,2026.3,3106.7,0,51.4,3.2
0.317011,558.9,355.6,1984.5,174.7,3108.6,298.4,601.5,2028.2,3107.3,117.8,51.4,3.9
0.319011,573.4,399.1,1972.9,147.1,3087.6,259.4,599.4,2029.7,3107.8,115.3,51.2,5.3
0.321011,592.7,416.7,1966.2,134.1,3069.4,242.5,597.9,2030.8,3108.1,113,51.1,7.1
0.323011,598.3,417.4,1964.4,128.5,3060.0,234.9,597,2031.4,3108.3,110.8,51,8.9
0.325011,583.9,415.3,1964.7,127.3,3054.5,233.4,596.7,2031.7,3108.4,108.7,50.9,10.2
