time,f1,b1,f2,b2,f3,b3,f1p,f2p,f3p,f0,intensity,harmonicity
0.025000,496.6,93.8,1340.7,112.8,2827.2,317.1,530.9,1335.5,2802.6,159.7,74.6,8.5
0.027000,508.9,98.5,1340.3,116.6,2812.9,377.7,532.6,1333.4,2800.2,159.9,74.8,8.7
0.029000,522.9,104.9,1337.2,116.4,2795.7,408.0,535.3,1329.9,2796.2,160.2,74.8,9.1
0.031000,535.2,116.6,1329.6,119.2,2794.3,402.5,539.1,1325.2,2790.8,160.5,74.8,9.8
0.033000,545.1,130.7,1317.8,124.1,2802.0,371.4,543.9,1319.3,2784.2,160.8,74.8,10.5
0.035000,554.1,138.2,1303.8,125.0,2793.6,330.6,549.5,1312.4,2776.5,161.1,74.8,11.2
0.037000,563.8,136.5,1289.9,119.4,2765.1,292.1,555.8,1304.7,2768,161.4,74.8,11.9
0.039000,574.1,129.3,1279.1,108.7,2735.1,249.4,562.7,1296.3,2758.9,161.8,74.9,12.8
0.041000,584.4,120.5,1272.9,94.8,2718.6,206.5,570.1,1287.4,2749.6,162.1,75,13.6
0.043000,594.6,112.8,1269.3,80.4,2713.1,171.2,577.8,1278.2,2740.2,162.5,75.1,14.3
0.045000,603.7,106.8,1266.5,68.6,2712.8,145.9,585.7,1268.9,2731.1,162.9,75.2,14.7
0.047000,610.7,101.9,1264.4,61.8,2715.3,130.3,593.6,1259.7,2722.4,163.4,75.3,14.5
0.049000,616.3,98.1,1263.3,59.8,2718.3,122.8,601.4,1250.7,2714.6,163.8,75.4,14
0.051000,621.6,95.5,1261.8,61.9,2718.1,120.4,609,1242,2707.6,164.2,75.5,13.3
0.053000,626.4,93.8,1257.6,67.0,2712.3,119.2,616.2,1233.8,2701.8,164.7,75.6,12.7
0.055000,630.1,94.0,1249.1,75.5,2702.6,117.7,622.9,1226,2697.2,165.1,75.6,12.6
0.057000,632.1,96.5,1235.7,88.6,2694.1,117.3,629.1,1218.9,2694,165.6,75.6,12.9
0.059000,632.0,99.8,1217.3,102.2,2689.2,117.0,634.6,1212.3,2692.1,166.1,75.6,13.6
0.061000,630.9,102.4,1197.5,106.1,2686.8,113.8,639.5,1206.3,2691.5,166.5,75.6,14.5
0.063000,630.4,103.5,1182.8,97.6,2685.9,108.0,643.6,1200.9,2692.3,167,75.6,15.3
0.065000,631.5,102.7,1175.6,84.8,2687.4,102.5,647,1195.9,2694.2,167.4,75.6,16
0.067000,633.9,100.9,1173.4,74.0,2692.2,99.0,649.6,1191.3,2697.1,167.9,75.7,16.3
0.069000,636.8,98.8,1172.7,66.7,2698.6,97.5,651.6,1187,2701,168.4,75.7,16.6
0.071000,639.8,96.6,1172.4,62.8,2705.3,98.5,652.9,1182.9,2705.5,168.8,75.8,16.7
0.073000,642.6,94.3,1172.5,62.0,2712.3,102.3,653.6,1178.8,2710.4,169.2,75.8,16.9
0.075000,645.2,92.0,1172.7,63.2,2719.9,108.2,653.7,1174.7,2715.6,169.7,75.9,17.4
0.077000,648.0,89.4,1172.3,65.4,2727.1,115.0,653.4,1170.5,2720.7,170.1,75.9,18
0.079000,650.8,86.9,1170.9,68.3,2733.2,122.9,652.6,1166.1,2725.6,170.5,75.9,18.8
0.081000,653.2,84.7,1168.6,72.1,2738.2,133.6,651.6,1161.4,2730.1,170.9,75.9,19.6
0.083000,654.6,83.2,1165.1,76.6,2742.9,148.4,650.4,1156.4,2733.8,171.2,75.9,20.5
0.085000,654.9,83.0,1160.7,82.6,2749.2,168.4,649,1151.1,2736.8,171.6,75.9,21.3
0.087000,654.2,84.4,1154.9,91.2,2758.4,194.0,647.6,1145.3,2738.7,171.9,75.9,22
0.089000,652.9,86.8,1147.6,101.0,2766.2,221.4,646.2,1139.3,2739.5,172.3,75.8,22.7
0.091000,651.5,89.4,1138.8,109.3,2765.8,245.8,644.9,1133,2739.2,172.6,75.8,23.4
0.093000,650.5,90.9,1129.6,113.2,2753.3,262.8,643.8,1126.4,2737.7,172.9,75.8,24
0.095000,650.3,90.5,1121.1,112.3,2732.0,268.9,642.8,1119.8,2735,173.2,75.8,24.5
0.097000,649.9,89.6,1112.7,110.2,2710.4,268.8,642,1113.1,2731.1,173.5,75.8,24.7
0.099000,648.9,89.6,1103.8,109.4,2695.4,269.7,641.5,1106.5,2726.1,173.7,75.8,24.8
0.101000,647.2,90.5,1094.7,108.1,2688.7,272.1,641.2,1100,2720.1,174,75.8,24.8
0.103000,645.3,91.5,1086.9,104.7,2686.5,272.5,641.1,1093.8,2713.3,174.2,75.8,24.8
0.105000,643.8,91.8,1081.2,99.5,2683.4,266.5,641.1,1088.1,2705.8,174.5,75.8,25
0.107000,642.6,91.3,1077.2,94.1,2676.9,252.5,641.4,1082.7,2697.7,174.7,75.8,25.5
0.109000,641.7,90.5,1074.1,89.3,2668.4,234.4,641.7,1077.9,2689.3,174.9,75.9,26
0.111000,641.0,89.5,1071.3,85.0,2661.6,219.2,642.1,1073.7,2680.6,175.1,75.9,26.7
0.113000,640.2,88.4,1069.0,81.0,2659.2,212.2,642.5,1070,2672,175.3,75.9,27.2
0.115000,639.3,87.5,1067.2,77.3,2660.1,213.3,642.8,1066.9,2663.5,175.5,76,27.6
0.117000,638.8,85.9,1065.9,73.0,2660.9,216.5,643,1064.3,2655.3,175.7,76,27.7
0.119000,638.5,83.7,1064.8,68.3,2659.0,217.9,643,1062.2,2647.5,175.8,76,27.6
0.121000,637.8,82.0,1063.1,64.6,2655.8,220.2,642.8,1060.5,2640.2,176,76.1,27.5
0.123000,635.9,81.6,1060.7,62.7,2654.9,228.4,642.3,1059,2633.6,176.2,76.1,27.3
0.125000,633.2,82.3,1058.1,62.4,2657.5,244.2,641.4,1057.7,2627.6,176.4,76.1,27.2
0.127000,630.8,82.7,1055.6,62.2,2660.6,262.8,640.1,1056.4,2622.4,176.5,76.1,27.3
0.129000,629.4,81.8,1053.7,61.1,2659.1,274.3,638.5,1054.9,2617.9,176.7,76.1,27.4
0.131000,629.1,79.5,1052.2,59.2,2649.5,270.0,636.4,1053.2,2614.2,176.8,76.1,27.4
0.133000,629.3,76.1,1050.7,56.6,2633.3,251.3,633.9,1051.1,2611.2,177,76.1,27.5
0.135000,629.4,72.3,1049.0,54.4,2615.7,228.8,630.9,1048.4,2608.9,177.2,76.1,27.3
0.137000,628.4,69.7,1046.8,53.9,2601.4,212.5,627.5,1045.1,2607.2,177.3,76.1,27
0.139000,626.3,68.7,1043.9,56.0,2592.1,205.2,623.7,1041,2606,177.5,76.1,26.5
0.141000,623.6,68.8,1040.1,60.1,2586.5,204.0,619.6,1036.2,2605.3,177.7,76.1,26
0.143000,620.6,69.4,1035.5,66.2,2582.6,205.9,615.2,1030.6,2605.1,177.9,76.1,25.4
0.145000,617.3,70.4,1029.7,74.3,2580.3,208.7,610.5,1024.2,2605.2,178,76,24.9
0.147000,613.4,71.9,1022.4,84.8,2580.4,210.4,605.6,1017.1,2605.5,178.2,76,24.4
0.149000,609.1,73.7,1013.3,97.3,2582.6,209.6,600.6,1009.4,2606,178.4,76,23.9
0.151000,604.4,75.3,1002.2,109.9,2586.4,205.9,595.6,1001.1,2606.6,178.6,76,23.4
0.153000,599.2,76.4,989.4,119.8,2591.3,199.4,590.6,992.5,2607.3,178.8,76,22.9
0.155000,593.6,77.0,976.1,125.1,2596.7,191.8,585.6,983.6,2608.1,178.9,76,22.5
0.157000,587.6,76.7,964.2,125.6,2601.6,186.5,580.9,974.8,2608.8,179.1,76.1,22
0.159000,581.3,75.5,954.3,122.6,2605.4,186.4,576.4,966.1,2609.4,179.3,76.2,21.6
0.161000,575.1,73.4,946.5,117.4,2607.6,191.4,572.3,957.8,2610,179.5,76.2,21.3
0.163000,569.4,70.2,941.0,110.8,2608.0,198.9,568.6,950.1,2610.6,179.7,76.3,20.9
0.165000,564.1,66.2,937.6,103.4,2607.5,206.8,565.3,943.2,2611,179.9,76.4,20.6
0.167000,559.3,61.8,935.8,96.5,2609.0,216.3,562.5,937.3,2611.4,180,76.6,20.4
0.169000,554.8,57.3,935.5,90.5,2616.2,228.9,560.4,932.6,2611.7,180.2,76.7,20.2
0.171000,550.9,53.1,936.5,85.5,2628.2,240.4,558.8,929.1,2611.9,180.4,76.8,20.1
0.173000,547.9,49.6,938.5,81.5,2639.8,247.4,557.8,926.9,2612,180.5,77,19.9
0.175000,545.4,46.8,941.0,78.6,2646.2,253.1,557.5,926.2,2612,180.7,77.1,19.6
