time,f1,b1,f2,b2,f3,b3,f1p,f2p,f3p,f0,intensity,harmonicity
0.025011,582.1,261.4,1522.6,249.8,2737.8,373.9,615.7,1555.2,2716.7,231,53.9,14.7
0.027011,601.9,254.0,1548.6,190.3,2736.2,417.6,617.8,1557.2,2716.1,231.3,54,14.7
0.029011,620.2,253.7,1569.4,151.6,2724.2,423.9,621.3,1560.5,2715.1,231.6,54.1,14.8
0.031011,635.4,253.1,1582.3,125.4,2711.0,386.8,626,1565,2713.7,232,54.3,15.1
0.033011,647.1,249.0,1589.5,106.3,2703.6,336.3,631.9,1570.6,2712,232.4,54.4,15.5
0.035011,655.3,242.0,1593.2,92.1,2702.0,293.7,638.7,1577.1,2709.9,232.8,54.5,15.9
0.037011,660.7,230.7,1595.0,81.0,2702.5,263.1,646.3,1584.2,2707.4,233.2,54.5,16.5
0.039011,664.3,212.9,1596.2,72.0,2701.0,241.3,654.4,1591.9,2704.7,233.7,54.6,17.3
0.041011,667.6,190.5,1597.7,65.1,2696.5,226.9,662.8,1599.9,2701.8,234.2,54.7,18.2
0.043011,671.8,169.4,1600.2,61.3,2690.7,222.8,671.4,1608,2698.7,234.8,54.9,18.8
0.045011,677.5,153.9,1604.2,61.2,2684.3,230.6,679.9,1616.1,2695.5,235.4,55,18.9
0.047011,684.6,144.4,1610.6,64.7,2677.3,245.7,688.1,1623.8,2692.2,236,55.2,18.3
0.049011,692.4,139.3,1619.3,71.4,2671.5,260.2,695.7,1631.2,2689,236.7,55.4,17.2
0.051011,700.0,137.2,1629.2,80.2,2670.0,271.9,702.7,1638,2685.8,237.4,55.6,15.9
0.053011,706.7,137.0,1639.1,90.6,2673.7,283.8,709,1644.2,2682.9,238.2,55.8,14.7
0.055011,712.3,137.3,1648.1,101.4,2680.3,293.0,714.3,1649.7,2680.2,239,56.1,14.1
0.057011,716.7,136.1,1655.8,111.0,2685.8,291.7,718.7,1654.3,2677.9,239.8,56.3,14.1
0.059011,720.1,133.2,1662.1,118.9,2688.3,283.9,722.1,1658.1,2676.1,240.7,56.5,14.6
0.061011,722.8,128.9,1666.8,125.3,2688.2,280.3,724.5,1661.1,2674.7,241.6,56.7,15.2
0.063011,724.4,122.9,1669.5,129.5,2686.9,286.0,726,1663.1,2673.8,242.5,56.9,15.9
0.065011,725.2,115.7,1670.4,132.8,2686.9,300.9,726.6,1664.2,2673.6,243.4,57.1,16.2
0.067011,725.3,109.1,1670.4,138.7,2690.2,323.9,726.5,1664.4,2673.9,244.4,57.2,16.3
0.069011,725.0,104.4,1670.2,150.0,2697.0,349.6,725.9,1663.6,2674.8,245.4,57.4,16.3
0.071011,724.2,100.0,1669.0,165.4,2702.1,366.8,724.7,1661.9,2676.3,246.4,57.5,16.1
0.073011,722.8,95.2,1666.1,182.6,2701.4,374.4,723.2,1659.1,2678.2,247.4,57.6,15.9
0.075011,721.1,90.2,1660.6,200.1,2693.7,383.8,721.6,1655.2,2680.7,248.5,57.6,15.8
0.077011,719.7,85.7,1652.0,218.0,2679.0,409.1,720,1650.2,2683.5,249.5,57.7,15.6
0.079011,718.7,83.2,1640.5,239.4,2659.5,468.5,718.4,1644.1,2686.7,250.6,57.8,15.4
0.081011,718.4,83.4,1628.5,265.3,2642.5,581.9,717.1,1636.7,2690.1,251.7,57.9,15.2
0.083011,718.6,85.0,1618.5,286.6,2641.9,739.5,716.1,1628,2693.6,252.8,57.9,15.2
0.085011,718.5,86.3,1609.1,294.1,2660.5,882.8,715.4,1617.9,2697.2,253.8,58,15.3
0.087011,718.3,88.2,1600.0,296.3,2680.3,999.9,715,1606.5,2700.7,254.9,58.2,15.7
0.089011,718.6,91.6,1590.9,302.2,2689.6,1136.9,715,1593.7,2704.1,256,58.3,16.3
0.091011,719.2,95.2,1578.4,308.7,2694.3,1311.9,715.2,1579.6,2707.3,257,58.4,17.1
0.093011,719.5,97.1,1560.4,305.5,2715.8,1479.7,715.6,1564.2,2710.3,258,58.6,17.8
0.095011,718.6,95.7,1538.7,291.7,2756.5,1515.6,716,1547.6,2713.1,259.1,58.8,18.3
0.097011,716.5,92.1,1519.4,278.0,2775.9,1358.5,716.3,1529.9,2715.6,260.1,58.9,18.6
0.099011,714.4,89.1,1507.0,273.7,2766.3,1155.7,716.3,1511.3,2717.9,261,59.1,18.7
0.101011,712.5,87.9,1498.4,279.9,2746.6,1003.1,715.8,1492,2720,262,59.3,18.8
0.103011,710.4,87.8,1486.9,294.0,2729.0,893.8,714.7,1472.2,2721.9,262.9,59.4,18.9
0.105011,707.9,88.5,1467.9,313.0,2717.8,805.0,712.8,1452.1,2723.7,263.8,59.6,19.1
0.107011,704.5,90.0,1441.8,332.6,2712.6,726.7,710,1432,2725.5,264.7,59.7,19.4
0.109011,700.3,92.0,1414.1,347.8,2711.8,656.4,706.1,1412.1,2727.3,265.5,59.8,19.7
0.111011,695.3,94.0,1391.8,354.9,2712.1,591.1,701.1,1392.8,2729.2,266.3,59.9,20.1
0.113011,690.0,96.2,1377.6,356.7,2712.1,541.3,694.9,1374.2,2731.2,267.1,60,20.4
0.115011,684.5,99.8,1367.7,362.5,2714.3,526.5,687.5,1356.5,2733.5,267.8,60.1,20.7
0.117011,678.9,106.3,1355.7,379.2,2722.1,552.5,678.9,1339.9,2735.9,268.5,60.2,21
0.119011,673.2,115.5,1337.8,404.5,2736.5,600.3,669.4,1324.7,2738.6,269.2,60.3,21.3
0.121011,666.6,124.9,1312.9,423.3,2750.3,624.7,659,1310.8,2741.5,269.8,60.4,21.5
0.123011,657.3,130.1,1284.7,416.1,2754.3,601.5,647.9,1298.3,2744.7,270.4,60.5,21.7
0.125011,645.2,129.4,1262.4,383.9,2753.2,568.7,636.4,1287.4,2748,270.9,60.5,21.9
0.127011,631.5,123.0,1250.7,339.3,2753.7,560.7,624.8,1277.8,2751.4,271.4,60.6,21.9
0.129011,617.2,112.6,1246.9,291.2,2755.9,579.3,613.2,1269.7,2754.8,271.9,60.6,22
0.131011,603.4,100.1,1247.1,245.7,2757.1,614.8,602.1,1263,2758.1,272.3,60.6,22
0.133011,591.0,88.0,1249.0,207.8,2756.1,668.5,591.8,1257.4,2761.2,272.7,60.6,21.8
0.135011,580.6,78.2,1252.2,180.7,2755.7,761.1,582.4,1253,2764.1,273.1,60.4,21.3
0.137011,572.3,71.6,1256.1,164.6,2760.6,917.0,574.4,1249.6,2766.6,273.5,60.2,20.5
0.139011,565.9,68.0,1259.5,157.7,2770.5,1132.5,567.8,1247,2768.7,273.8,59.8,19.4
0.141011,560.8,67.1,1260.8,158.3,2775.7,1343.3,563,1245.3,2770.2,274,59.2,18.2
0.143011,556.5,69.9,1258.7,166.5,2773.1,1477.3,560.1,1244.3,2771.1,274.3,58.4,16.8
0.145011,553.0,78.8,1253.3,182.0,2784.2,1578.3,559.1,1243.9,2771.4,274.5,57.4,15.6
