time,f1,b1,f2,b2,f3,b3,f1p,f2p,f3p,f0,intensity,harmonicity
0.026000,330.0,292.0,1428.7,273.6,2756.9,386.3,384.8,1400.2,2322.3,122.3,67,11.4
0.028000,351.9,388.4,1448.2,285.6,2766.0,469.3,386.9,1396.7,2322.7,122.6,67,11.4
0.030000,379.0,521.4,1462.2,320.0,2733.2,660.6,390.3,1391,2323.4,122.8,67,11.8
0.032000,409.6,606.5,1460.6,370.6,2598.2,925.0,395.1,1383.1,2324.3,123.1,67,12.4
0.034000,435.1,629.3,1449.2,406.7,2438.4,949.1,401,1373.3,2325.4,123.4,66.9,13
0.036000,448.0,639.2,1431.0,448.8,2355.7,952.2,407.9,1361.7,2326.8,123.8,66.9,13.2
0.038000,436.6,608.2,1365.7,541.0,2166.1,1121.1,415.8,1348.6,2328.3,124.1,66.8,13.5
0.040000,427.3,527.5,1253.4,522.2,1984.8,813.4,424.5,1334.3,2330.1,124.5,66.8,13.7
0.042000,434.4,470.2,1209.9,455.5,1981.4,673.3,433.7,1319,2332,124.9,66.8,13.9
0.044000,445.1,448.8,1200.3,426.3,2005.8,663.2,443.4,1303.1,2334.2,125.4,66.8,14
0.046000,451.8,445.1,1194.7,405.8,2035.1,693.8,453.4,1286.9,2336.5,125.8,66.8,14
0.048000,458.7,433.4,1188.2,373.9,2062.6,718.3,463.5,1270.6,2339.2,126.3,66.9,14
0.050000,466.6,402.3,1184.3,333.8,2080.3,721.4,473.5,1254.6,2342.1,126.9,67,13.9
0.052000,469.6,369.2,1181.4,298.4,2083.5,718.8,483.3,1239.3,2345.5,127.4,67.1,13.8
0.054000,469.7,347.4,1178.5,270.6,2080.2,736.1,492.7,1224.7,2349.3,128,67.2,13.7
0.056000,477.1,339.0,1180.7,253.7,2091.5,800.7,501.6,1211.3,2353.7,128.6,67.3,13.8
0.058000,493.9,337.9,1190.3,248.2,2143.8,916.1,510,1199.2,2358.8,129.2,67.4,14
0.060000,514.3,343.5,1203.8,248.0,2268.5,1072.2,517.7,1188.6,2364.7,129.9,67.5,14.3
0.062000,537.0,362.9,1218.4,245.6,2495.8,1092.3,524.7,1179.5,2371.6,130.5,67.6,14.6
0.064000,562.1,382.9,1229.4,231.9,2622.0,920.7,531,1172.2,2379.6,131.2,67.7,14.6
0.066000,581.4,379.8,1233.3,212.3,2664.1,807.3,536.5,1166.6,2388.9,131.9,67.8,14.4
0.068000,586.1,360.4,1230.3,200.9,2680.8,746.2,541.3,1162.8,2399.5,132.7,67.8,13.7
0.070000,580.2,345.4,1222.2,203.3,2683.4,732.5,545.5,1160.7,2411.7,133.4,67.9,12.9
0.072000,568.5,329.7,1208.6,209.9,2667.5,766.6,549,1160.2,2425.4,134.2,67.9,12
0.074000,557.3,304.8,1195.1,208.3,2642.8,831.3,552,1161.2,2440.8,135,67.9,11.4
0.076000,549.5,281.0,1185.9,206.7,2617.2,897.0,554.6,1163.5,2457.8,135.8,68,11.1
0.078000,544.1,268.2,1181.1,216.1,2588.8,930.7,556.8,1167,2476.5,136.6,68,11.1
0.080000,541.8,259.5,1179.6,228.4,2566.4,929.6,558.8,1171.5,2496.8,137.5,68,11.3
0.082000,541.6,246.1,1179.2,234.4,2560.4,925.3,560.6,1176.7,2518.6,138.3,68,11.6
0.084000,542.2,234.1,1180.0,241.1,2571.4,934.7,562.4,1182.5,2541.6,139.1,68.1,12
0.086000,544.8,230.0,1185.0,252.7,2577.9,912.2,564.3,1188.5,2565.7,140,68.1,12.3
0.088000,550.7,225.8,1193.6,257.2,2568.5,831.9,566.3,1194.6,2590.6,140.9,68.2,12.8
0.090000,557.5,215.6,1199.6,249.2,2560.0,764.8,568.6,1200.6,2615.8,141.7,68.3,13.4
0.092000,562.1,203.9,1199.9,239.4,2566.6,758.8,571.1,1206.2,2641.1,142.6,68.5,14
0.094000,565.0,191.2,1196.5,230.5,2583.2,790.9,573.9,1211.2,2665.9,143.5,68.7,14.3
0.096000,567.3,176.4,1190.1,218.5,2600.5,818.2,577,1215.6,2689.7,144.3,68.9,14.4
0.098000,570.0,164.9,1183.8,208.0,2619.2,817.5,580.4,1219.1,2712.1,145.2,69.1,14.2
0.100000,574.4,157.2,1180.5,201.2,2643.4,789.2,584,1221.7,2732.4,146.1,69.3,13.8
0.102000,580.5,148.8,1180.7,194.1,2666.0,732.6,587.9,1223.3,2750.1,147,69.4,13.4
0.104000,585.5,140.0,1181.0,186.5,2682.3,666.6,591.8,1223.9,2764.6,147.8,69.6,13.1
0.106000,588.8,133.4,1179.4,182.5,2695.4,600.0,595.9,1223.5,2775.3,148.7,69.7,13
0.108000,592.5,128.8,1178.1,184.2,2702.6,539.5,599.8,1222,2781.8,149.6,69.8,13.1
0.110000,597.8,125.8,1180.9,187.9,2702.2,496.2,603.6,1219.7,2783.6,150.4,69.8,13.4
0.112000,604.9,124.8,1189.5,189.1,2700.3,462.0,607.1,1216.6,2780.3,151.2,69.9,13.6
0.114000,613.9,124.3,1202.9,181.4,2706.3,428.5,610.2,1212.7,2771.4,152.1,69.9,13.8
0.116000,622.9,122.8,1216.3,164.8,2724.2,394.8,612.7,1208.2,2756.8,152.9,69.8,13.8
0.118000,631.8,123.5,1228.8,144.5,2746.0,362.1,614.6,1203.3,2736.3,153.7,69.7,13.8
0.120000,638.3,130.6,1237.4,131.2,2750.2,347.0,615.6,1198.2,2709.9,154.5,69.6,13.7
0.122000,641.3,142.9,1242.5,129.6,2724.7,352.1,615.8,1192.9,2677.5,155.2,69.4,13.5
0.124000,640.0,157.2,1246.4,144.2,2674.6,359.1,615.1,1187.7,2639.5,156,69.2,13.2
0.126000,636.7,169.8,1251.0,176.2,2631.7,363.9,613.4,1182.6,2596,156.7,69.1,12.8
0.128000,634.5,181.5,1253.2,223.4,2604.1,384.4,610.7,1178,2547.6,157.5,69,12
0.130000,632.9,196.8,1241.4,268.9,2579.9,436.7,606.9,1173.7,2494.7,158.2,69,11
0.132000,626.8,213.9,1212.9,280.1,2547.4,522.0,602.2,1170.1,2438,158.8,69,10.2
0.134000,614.5,222.9,1183.4,262.1,2498.1,642.0,596.5,1167.2,2378.3,159.5,69,9.6
0.136000,599.7,219.2,1162.2,239.0,2415.2,776.3,590,1164.9,2316.4,160.2,69.1,9.6
0.138000,586.4,208.5,1150.2,222.5,2310.2,827.1,582.7,1163.5,2253.2,160.8,69.1,10.1
0.140000,574.8,195.9,1143.3,207.1,2216.0,780.2,574.8,1162.9,2189.6,161.4,69,11
0.142000,562.7,186.7,1139.0,190.6,2134.0,686.7,566.4,1163.1,2126.8,162,68.9,11.8
0.144000,548.3,185.2,1136.1,176.3,2059.7,591.2,557.7,1164,2065.7,162.6,68.5,12.5
0.146000,530.2,187.2,1134.1,162.1,1988.9,507.6,548.8,1165.6,2007.3,163.1,68.1,12.6
0.148000,510.2,188.3,1133.6,147.1,1920.5,446.9,540.1,1167.9,1952.6,163.7,67.6,12.4
0.150000,493.4,192.4,1135.7,139.0,1862.4,421.3,531.5,1170.7,1902.6,164.3,67,11.9
0.152000,481.3,206.7,1140.8,141.5,1818.4,428.4,523.4,1173.9,1858.1,164.8,66.4,11.4
0.154000,476.2,237.6,1149.3,156.5,1802.9,471.8,516,1177.5,1819.8,165.3,65.9,10.9
0.156000,477.7,275.2,1158.5,181.7,1804.9,525.1,509.3,1181.3,1788.5,165.9,65.5,10.4
0.158000,481.2,295.8,1167.0,208.7,1793.0,541.5,503.5,1185.1,1764.7,166.4,65.2,10
0.160000,482.1,281.2,1172.4,215.0,1765.3,495.7,498.9,1188.9,1748.7,166.9,65,9.5
0.162000,479.3,248.1,1173.8,192.9,1740.0,423.9,495.4,1192.6,1740.8,167.5,64.9,9.1
0.164000,476.0,215.8,1175.4,161.8,1721.5,360.8,493.1,1196,1741,168,64.7,8.8
0.166000,474.1,196.3,1178.4,139.5,1710.9,321.6,492.2,1199.1,1749.2,168.5,64.5,8.7
0.168000,473.0,187.3,1181.6,126.5,1706.0,297.8,492.5,1201.8,1765.3,169.1,64.3,8.9
0.170000,472.3,186.1,1184.0,120.6,1705.2,281.8,494.2,1204,1788.6,169.6,63.9,9.2
0.172000,472.2,192.8,1183.2,121.2,1703.9,270.2,497,1205.7,1818.8,170.2,63.4,9.6
0.174000,471.6,213.8,1176.1,130.6,1697.2,264.4,501,1206.9,1854.9,170.7,62.8,9.8
0.176000,469.7,282.9,1163.3,165.1,1690.6,291.9,506.1,1207.6,1896.2,171.2,62.2,9.7
0.178000,466.6,494.9,1153.5,266.3,1691.7,420.3,512,1207.8,1941.7,171.8,61.6,9.3
0.180000,147.8,1529.9,1094.7,500.6,1599.4,661.2,518.6,1207.5,1990.4,172.3,61.3,8.8
0.182000,1024.4,441.4,1535.3,539.9,2721.9,677.2,525.8,1206.8,2041,172.8,61.3,8.3
0.184000,1066.4,421.8,1548.9,621.6,2710.7,542.0,533.3,1205.8,2092.4,173.3,61.6,7.9
0.186000,1134.8,414.3,1551.6,995.8,2756.6,456.6,540.9,1204.5,2143.5,173.8,62.2,7.7
0.188000,314.3,1255.7,1182.7,305.4,1930.5,1431.6,548.4,1203,2193,174.3,63,7.6
0.190000,468.8,692.9,1178.6,220.5,2062.9,1320.3,555.7,1201.5,2239.8,174.8,63.9,7.5
0.192000,489.8,495.8,1162.5,168.0,2101.6,1326.2,562.4,1199.9,2282.8,175.3,64.7,7.6
0.194000,494.7,387.0,1144.6,129.8,2161.0,1302.0,568.5,1198.4,2321,175.7,65.3,8
0.196000,493.8,322.2,1129.9,104.3,2275.6,1185.8,573.7,1197.1,2353.6,176.1,65.9,8.8
0.198000,491.0,279.1,1117.2,88.6,2363.8,946.2,577.9,1195.9,2379.8,176.5,66.3,10.1
0.200000,488.9,256.3,1106.3,81.9,2401.8,762.9,580.9,1195.1,2398.9,176.9,66.5,11.7
0.202000,488.9,256.7,1099.4,82.9,2439.6,671.0,582.8,1194.6,2410.5,177.2,66.7,13.4
0.204000,488.0,267.2,1095.1,87.2,2482.7,641.1,583.5,1194.4,2414.4,177.5,66.7,14.9
