time,f1,b1,f2,b2,f3,b3,f1p,f2p,f3p,f0,intensity,harmonicity
0.026011,743.5,108.2,2156.4,187.7,3264.9,334.1,801.7,2176.1,3251.4,221.3,63.9,6.3
0.028011,755.8,107.2,2159.5,189.1,3257.9,388.1,802.2,2175.8,3249.2,221.3,64.1,7.6
0.030011,769.1,107.3,2162.4,191.0,3247.7,421.0,803.2,2175.3,3245.6,221.2,64.2,8.9
0.032011,783.9,107.6,2165.0,195.3,3235.8,432.2,804.5,2174.6,3240.6,221.2,64.2,10.2
0.034011,799.0,108.5,2169.1,202.7,3227.9,428.5,806.3,2173.7,3234.2,221.1,64.1,11.7
0.036011,812.4,109.8,2174.7,209.3,3222.3,412.1,808.3,2172.6,3226.7,221.1,64,13.3
0.038011,823.3,108.9,2177.8,211.6,3210.7,393.7,810.8,2171.3,3218,221,64,15.4
0.040011,832.5,104.5,2176.1,211.0,3195.8,384.9,813.5,2169.8,3208.3,220.9,64,17.5
0.042011,839.7,99.3,2172.7,209.5,3188.6,390.8,816.6,2168.1,3197.8,220.9,64,19.6
0.044011,845.0,95.0,2170.5,207.0,3188.2,408.3,820,2166.3,3186.5,220.8,64,21.4
0.046011,849.3,91.4,2169.4,202.8,3184.0,433.0,823.6,2164.3,3174.6,220.7,64,22.6
0.048011,853.0,87.5,2168.0,199.0,3169.0,464.9,827.5,2162.1,3162.3,220.6,64.1,23.4
0.050011,856.4,83.6,2166.0,197.9,3148.6,490.8,831.6,2159.8,3149.7,220.6,64.1,23.9
0.052011,859.1,81.0,2164.4,201.5,3137.4,505.1,835.8,2157.3,3137,220.5,64.1,24.2
0.054011,861.1,79.5,2162.6,210.7,3134.6,524.3,840.2,2154.7,3124.4,220.4,64.2,24.5
0.056011,862.5,78.7,2159.9,223.7,3127.4,562.6,844.7,2152,3111.9,220.3,64.2,25
0.058011,863.7,78.9,2157.4,237.4,3111.7,610.1,849.2,2149.1,3099.9,220.2,64.2,25.5
0.060011,864.6,80.5,2155.9,247.9,3098.7,630.9,853.8,2146.1,3088.3,220.1,64.2,26.1
0.062011,865.5,82.1,2153.8,252.1,3084.6,617.8,858.3,2143,3077.4,220,64.2,26.6
0.064011,866.6,82.2,2149.7,252.2,3063.5,602.9,862.6,2139.8,3067.3,219.9,64.2,26.9
0.066011,868.1,80.5,2144.0,253.8,3040.8,603.2,866.9,2136.6,3058,219.8,64.2,27
0.068011,869.8,77.8,2137.8,259.9,3019.4,619.0,870.9,2133.3,3049.7,219.7,64.2,26.8
0.070011,871.5,75.6,2131.4,270.0,3006.2,645.7,874.6,2129.9,3042.4,219.6,64.1,26.5
0.072011,872.5,75.6,2128.0,279.2,3023.3,674.5,878.1,2126.5,3036.3,219.5,64.1,26.1
0.074011,872.8,77.1,2125.8,281.3,3057.2,668.5,881.2,2123,3031.3,219.3,64.1,25.7
0.076011,873.1,76.1,2116.0,275.9,3042.0,656.4,883.9,2119.6,3027.5,219.2,64.1,25.2
0.078011,873.5,73.2,2102.6,269.4,2997.6,648.0,886.2,2116.2,3025,219.1,64.1,24.6
0.080011,873.9,71.2,2094.5,269.0,2970.4,646.4,888.1,2112.8,3023.6,219,64.1,23.9
0.082011,874.4,70.9,2092.9,277.3,2971.1,673.5,889.4,2109.4,3023.4,218.9,64.1,23.3
0.084011,874.9,71.9,2094.8,290.1,3000.1,718.2,890.3,2106.2,3024.3,218.8,64.1,23
0.086011,875.5,73.5,2098.1,304.4,3055.4,744.3,890.7,2103,3026.3,218.7,64,23.2
0.088011,875.9,74.9,2101.0,318.8,3103.2,713.1,890.7,2099.9,3029.3,218.6,64,23.8
0.090011,876.2,75.6,2103.1,332.8,3116.3,663.0,890.1,2097,3033.2,218.4,64,24.7
0.092011,876.5,76.3,2102.5,342.5,3110.1,631.0,889.2,2094.2,3038,218.3,64,25.7
0.094011,876.8,76.7,2096.4,342.6,3094.7,618.6,887.8,2091.6,3043.5,218.2,64,26.6
0.096011,877.2,76.4,2085.9,332.7,3072.8,614.5,886,2089.1,3049.7,218.1,64,27.4
0.098011,877.5,75.5,2076.7,319.0,3053.4,609.2,883.9,2086.9,3056.4,218.1,64,28
0.100011,877.7,74.5,2071.5,305.6,3044.2,605.0,881.6,2084.9,3063.6,218,64,28.7
0.102011,877.8,73.4,2069.9,292.9,3044.0,605.5,879.1,2083.1,3071,217.9,64,29.3
0.104011,877.7,72.6,2070.0,280.7,3047.7,606.6,876.4,2081.6,3078.7,217.8,64,29.7
0.106011,877.4,72.6,2071.2,273.1,3056.2,603.8,873.7,2080.3,3086.4,217.7,63.9,29.8
0.108011,877.0,73.9,2073.6,274.7,3070.9,595.6,871,2079.3,3094.1,217.6,63.9,29.8
0.110011,876.5,75.6,2076.1,284.1,3082.3,581.7,868.3,2078.6,3101.7,217.6,63.9,29.6
0.112011,876.1,75.7,2076.5,294.9,3079.5,564.7,865.9,2078.1,3109.1,217.5,63.9,29.3
0.114011,875.8,74.6,2076.1,303.6,3071.7,550.4,863.6,2077.9,3116.3,217.4,63.8,29
0.116011,875.4,73.0,2076.9,310.7,3069.5,545.6,861.7,2078,3123.1,217.4,63.8,28.8
0.118011,874.7,71.9,2079.9,314.4,3077.9,557.4,860.1,2078.3,3129.5,217.3,63.8,28.5
0.120011,873.8,71.8,2085.6,313.7,3098.9,587.4,858.9,2078.9,3135.4,217.3,63.8,28.2
0.122011,872.5,72.9,2093.7,309.3,3134.2,632.0,858,2079.7,3140.9,217.2,63.7,28
0.124011,871.3,74.7,2102.2,304.7,3184.6,677.8,857.7,2080.7,3145.8,217.2,63.7,27.9
0.126011,870.5,76.1,2108.3,303.5,3238.4,698.0,857.8,2081.9,3150.3,217.1,63.6,27.9
0.128011,870.3,76.7,2109.4,305.2,3255.1,700.3,858.3,2083.2,3154.2,217.1,63.6,28.2
0.130011,870.4,76.7,2105.0,305.0,3219.7,716.2,859.3,2084.6,3157.7,217,63.5,28.7
0.132011,870.5,77.1,2098.7,299.5,3171.2,713.9,860.7,2086.1,3160.7,217,63.5,29
0.134011,870.2,78.1,2094.8,292.0,3146.2,700.7,862.4,2087.7,3163.2,217,63.4,29.1
0.136011,869.5,79.2,2093.8,286.2,3146.5,681.6,864.4,2089.2,3165.4,216.9,63.4,28.5
0.138011,868.7,79.7,2094.2,281.3,3157.2,655.0,866.6,2090.7,3167.2,216.9,63.3,27.3
0.140011,868.1,79.1,2094.4,276.0,3164.7,629.8,868.9,2092.1,3168.8,216.9,63.3,25.6
0.142011,867.2,78.6,2094.9,272.2,3169.0,612.6,871.3,2093.4,3170.2,216.8,63.2,24.1
0.144011,866.1,79.0,2095.9,273.1,3173.0,602.4,873.6,2094.6,3171.4,216.8,63.1,23.1
0.146011,864.6,80.4,2096.0,279.3,3177.8,595.8,875.7,2095.5,3172.6,216.8,63,22.9
0.148011,863.1,81.6,2092.8,288.0,3182.3,595.3,877.6,2096.1,3173.8,216.7,62.9,23.6
0.150011,861.9,81.6,2084.7,294.6,3180.9,603.0,878.9,2096.5,3175,216.7,62.8,24.9
0.152011,861.0,80.5,2074.6,296.4,3170.0,603.4,879.8,2096.5,3176.4,216.7,62.7,26.2
0.154011,859.9,79.5,2068.3,294.8,3158.5,580.4,880,2096.2,3178,216.7,62.6,27.2
0.156011,858.5,79.7,2068.2,293.5,3156.8,544.4,879.5,2095.4,3179.9,216.7,62.5,27.6
0.158011,856.7,81.0,2071.3,294.6,3164.7,506.8,878.1,2094.3,3182,216.7,62.4,27.6
0.160011,854.6,83.3,2073.6,298.2,3176.5,466.8,875.7,2092.7,3184.6,216.6,62.3,27.3
0.162011,852.4,86.2,2072.8,303.4,3186.2,433.0,872.4,2090.7,3187.5,216.6,62.2,26.8
0.164011,850.2,89.3,2070.5,309.7,3192.0,414.2,868,2088.3,3190.9,216.6,62.1,26.4
0.166011,847.9,92.3,2069.1,318.2,3192.4,412.8,862.5,2085.4,3194.7,216.6,62,26
0.168011,845.5,94.8,2069.6,328.2,3186.2,425.0,855.9,2082.1,3198.9,216.6,61.9,25.5
0.170011,842.8,96.5,2070.4,332.7,3177.4,442.2,848.1,2078.4,3203.6,216.6,61.8,25
0.172011,839.7,97.1,2071.0,324.4,3176.6,455.3,839.3,2074.2,3208.7,216.5,61.7,24.4
0.174011,836.1,97.3,2072.2,309.4,3192.7,454.9,829.5,2069.8,3214.1,216.5,61.6,24
0.176011,831.6,98.5,2074.6,300.4,3224.4,426.3,818.7,2065,3220,216.5,61.5,23.6
0.178011,826.0,100.8,2076.0,307.3,3253.0,375.5,807,2059.9,3226.2,216.4,61.4,23.4
0.180011,819.3,104.0,2073.1,327.6,3268.0,340.0,794.6,2054.6,3232.6,216.4,61.3,23.2
0.182011,811.0,107.5,2065.6,345.7,3271.7,337.2,781.5,2049.1,3239.2,216.3,61.2,23
0.184011,801.1,111.9,2059.0,350.2,3268.7,356.5,767.9,2043.5,3246,216.3,61.1,22.7
0.186011,789.0,117.5,2057.4,348.2,3264.0,383.8,754.1,2037.8,3252.9,216.2,61,22.3
0.188011,774.2,124.2,2060.2,350.2,3263.1,409.0,740,2032.2,3259.7,216.1,60.9,21.7
0.190011,757.2,130.7,2064.7,359.0,3270.4,420.6,726,2026.6,3266.5,216,60.9,21.1
0.192011,737.6,136.0,2067.5,372.5,3284.3,413.7,712.3,2021.2,3273.1,215.9,60.8,20.4
0.194011,717.7,138.1,2063.1,384.4,3294.9,401.4,698.9,2016,3279.4,215.8,60.7,19.6
0.196011,699.0,136.9,2047.9,387.5,3296.9,402.7,686.1,2011,3285.5,215.7,60.5,18.5
0.198011,681.9,134.2,2026.0,378.4,3291.4,417.1,674.1,2006.4,3291.1,215.5,60.3,17.2
0.200011,666.3,132.4,2005.7,361.5,3284.6,426.8,663,2002.2,3296.2,215.4,59.9,15.7
0.202011,651.7,133.5,1991.6,346.4,3283.2,416.9,653.1,1998.4,3300.9,215.3,59.5,14.2
0.204011,638.5,138.6,1982.4,339.8,3287.2,392.2,644.4,1995.1,3304.9,215.1,58.8,12.9
0.206011,625.5,148.7,1973.8,343.1,3292.6,364.1,637.1,1992.4,3308.2,215,58,12.9
0.208011,612.6,164.2,1964.2,355.2,3297.8,341.8,631.3,1990.2,3310.9,214.8,57,17.8
0.210011,598.7,185.4,1954.3,371.8,3304.4,327.1,627.1,1988.6,3312.8,214.7,55.7,23.8
0.212011,584.0,212.6,1944.5,389.5,3314.2,320.1,624.6,1987.6,3314,214.5,54.2,25.7
0.214011,568.9,246.9,1934.6,408.4,3326.9,318.3,623.7,1987.3,3314.4,214.4,52.4,18.4
