time,f1,b1,f2,b2,f3,b3,f1p,f2p,f3p,f0,intensity,harmonicity
0.026000,560.3,126.4,2026.7,260.4,2838.2,173.8,607.1,2008.4,2796.3,92.1,49.4,3.7
0.028000,574.2,184.7,2026.0,239.1,2825.9,165.9,608,2006.5,2796.3,92.1,49.3,3.8
0.030000,585.9,193.9,2019.9,221.3,2821.8,159.1,609.4,2003.3,2796.5,92.1,49.3,3.9
0.032000,596.5,160.8,2006.7,204.2,2818.0,156.8,611.4,1998.8,2796.6,92,49.3,4.2
0.034000,607.2,131.7,1989.5,197.0,2811.3,160.9,613.9,1993.1,2796.8,92,49.2,4.5
0.036000,619.4,131.9,1971.6,209.1,2795.7,171.5,616.9,1986.3,2796.9,92,49.2,4.8
0.038000,631.6,165.7,1957.9,229.1,2773.9,179.3,620.3,1978.4,2796.9,91.9,49.1,5.3
0.040000,640.1,191.3,1952.0,226.5,2765.7,176.5,624.1,1969.3,2796.8,91.9,49.1,5.9
0.042000,647.3,180.6,1950.9,207.2,2769.6,167.4,628.2,1959.3,2796.6,91.9,49.1,6.5
0.044000,655.0,154.3,1950.5,186.4,2779.8,156.0,632.6,1948.4,2796.1,91.8,49.2,7
0.046000,661.7,132.8,1940.6,172.0,2789.0,152.0,637.3,1936.6,2795.3,91.8,49.2,7.2
0.048000,663.8,126.1,1914.2,169.3,2788.2,165.3,642.1,1924,2794.3,91.8,49.3,7.2
0.050000,662.6,124.2,1887.2,168.2,2782.0,180.3,647,1910.8,2792.8,91.7,49.5,7.1
0.052000,663.4,107.9,1874.5,160.2,2780.2,184.1,651.9,1897,2790.9,91.7,49.6,7
0.054000,667.4,84.5,1871.2,150.5,2781.8,186.3,656.9,1882.6,2788.6,91.7,49.7,7
0.056000,673.0,66.7,1868.5,144.6,2782.1,196.7,661.7,1867.9,2785.7,91.7,49.8,7.2
0.058000,678.7,61.8,1860.4,147.1,2774.4,227.6,666.5,1852.9,2782.3,91.6,49.7,7.6
0.060000,681.6,70.9,1846.2,155.5,2748.6,279.0,671,1837.6,2778.3,91.6,49.7,8.1
0.062000,680.9,79.5,1833.2,159.4,2716.5,308.7,675.3,1822.2,2773.8,91.6,49.6,8.6
0.064000,680.0,74.4,1827.7,157.9,2714.6,290.8,679.4,1806.7,2768.6,91.6,49.6,9.2
0.066000,681.0,63.2,1826.7,161.9,2736.9,248.8,683.1,1791.3,2762.8,91.6,49.5,9.7
0.068000,682.9,57.8,1819.3,183.2,2759.0,212.5,686.5,1776,2756.4,91.6,49.5,10.3
0.070000,684.0,62.7,1788.2,224.0,2777.2,192.0,689.6,1760.9,2749.4,91.6,49.5,10.9
0.072000,683.0,70.7,1734.4,247.3,2796.3,180.3,692.3,1746.1,2741.9,91.6,49.6,11.4
0.074000,681.9,68.6,1702.1,238.0,2810.9,175.9,694.6,1731.6,2733.8,91.6,49.6,11.9
0.076000,683.3,61.9,1697.2,234.5,2805.9,180.3,696.5,1717.5,2725.2,91.7,49.7,12.2
0.078000,687.0,61.1,1697.6,251.8,2768.8,198.6,698.1,1703.8,2716.1,91.7,49.9,12.4
0.080000,692.2,72.4,1680.0,266.8,2714.7,230.1,699.3,1690.6,2706.7,91.7,50.1,12.5
0.082000,697.4,88.5,1658.5,254.0,2677.9,273.0,700.2,1677.9,2696.9,91.8,50.3,12.6
0.084000,699.1,89.5,1649.0,228.7,2665.7,321.8,700.9,1665.8,2686.8,91.8,50.5,12.7
0.086000,697.2,76.5,1644.3,206.3,2656.3,355.7,701.2,1654.2,2676.5,91.9,50.7,12.8
0.088000,694.6,63.8,1640.8,191.6,2641.0,362.4,701.3,1643.2,2666.1,91.9,50.8,13
0.090000,693.0,62.3,1636.2,192.4,2630.0,358.8,701.3,1632.7,2655.6,92,50.8,13.2
0.092000,694.2,78.9,1626.8,201.6,2633.9,358.6,701.1,1622.8,2645.2,92,50.7,13.4
0.094000,698.6,98.2,1619.7,195.3,2650.0,343.0,700.9,1613.5,2634.8,92.1,50.7,13.6
0.096000,702.0,99.2,1617.4,179.6,2661.9,309.2,700.6,1604.8,2624.6,92.2,50.6,14
0.098000,701.5,86.6,1612.4,167.0,2656.1,280.1,700.4,1596.5,2614.6,92.3,50.6,14.4
0.100000,697.9,76.1,1600.4,165.3,2627.6,266.4,700.2,1588.8,2604.9,92.3,50.5,15
0.102000,693.5,81.7,1580.2,174.5,2582.6,243.0,700.1,1581.5,2595.6,92.4,50.4,15.5
0.104000,690.6,103.1,1558.6,178.2,2545.4,215.4,700.1,1574.7,2586.7,92.5,50.3,15.9
0.106000,692.2,111.0,1551.4,167.4,2531.6,199.7,700.4,1568.3,2578.3,92.6,50.3,16
0.108000,696.1,102.5,1554.1,155.9,2534.4,190.0,700.9,1562.3,2570.4,92.7,50.3,15.9
0.110000,699.7,94.8,1559.7,152.7,2544.1,186.3,701.6,1556.5,2563.1,92.8,50.4,15.8
0.112000,704.2,102.2,1562.7,163.1,2551.6,195.4,702.6,1551.1,2556.4,92.9,50.5,15.5
0.114000,710.2,122.4,1556.1,173.1,2547.9,219.9,703.9,1545.9,2550.4,93,50.7,15.3
0.116000,714.3,126.0,1544.8,163.0,2534.1,244.3,705.5,1540.9,2545,93,50.9,15.1
0.118000,715.7,110.5,1537.1,144.0,2521.3,253.3,707.3,1536.2,2540.3,93.1,51.1,14.8
0.120000,717.8,100.6,1535.4,136.5,2524.1,246.2,709.5,1531.5,2536.3,93.2,51.3,14.6
0.122000,723.2,111.1,1535.0,154.0,2537.6,242.4,711.9,1527,2532.9,93.3,51.5,14.3
0.124000,734.8,150.1,1527.9,203.4,2541.7,261.8,714.5,1522.6,2530.3,93.4,51.7,14.2
0.126000,745.7,182.6,1516.9,237.7,2536.9,274.6,717.4,1518.2,2528.4,93.5,51.8,14.1
0.128000,747.5,175.3,1510.9,227.2,2534.6,262.7,720.4,1514,2527.2,93.5,52,14.1
0.130000,743.9,147.0,1508.8,196.9,2534.9,238.8,723.5,1509.7,2526.7,93.6,52.1,14.2
0.132000,739.3,122.2,1507.1,168.0,2537.2,212.4,726.7,1505.6,2526.8,93.7,52.2,14.3
0.134000,733.4,111.8,1500.5,145.5,2545.2,195.4,730,1501.4,2527.6,93.8,52.2,14.4
0.136000,727.4,116.5,1490.1,130.5,2559.9,197.0,733.1,1497.3,2529.1,93.8,52.3,14.5
0.138000,725.5,117.5,1484.8,118.6,2572.1,200.5,736.2,1493.2,2531.1,93.9,52.3,14.6
0.140000,726.5,107.0,1483.2,108.5,2574.3,201.2,739.1,1489.2,2533.8,93.9,52.5,14.7
0.142000,728.6,97.4,1480.8,102.0,2567.7,204.0,741.7,1485.3,2537.1,94,52.6,14.8
0.144000,731.5,105.0,1474.9,102.4,2552.0,203.6,744.1,1481.5,2540.9,94,52.8,14.9
0.146000,732.6,129.7,1467.4,101.6,2535.7,200.9,746.1,1477.8,2545.3,94.1,53,15
0.148000,731.2,138.8,1464.0,92.8,2525.6,200.9,747.7,1474.2,2550.1,94.1,53.2,15.3
0.150000,731.1,125.0,1465.8,82.5,2522.8,195.9,748.8,1470.7,2555.5,94.1,53.4,15.7
0.152000,733.8,110.1,1470.4,77.3,2529.5,183.1,749.3,1467.5,2561.3,94.2,53.6,15.9
0.154000,738.4,107.1,1474.9,80.9,2544.8,173.8,749.3,1464.4,2567.6,94.2,53.8,15.8
0.156000,742.7,121.1,1473.8,94.9,2563.1,180.3,748.7,1461.6,2574.3,94.2,53.9,15.2
0.158000,742.1,130.9,1466.2,103.3,2571.1,202.4,747.4,1459,2581.4,94.3,54.1,13.9
0.160000,737.7,115.8,1460.2,96.2,2565.2,236.1,745.5,1456.7,2588.9,94.3,54.2,12.3
0.162000,735.5,95.5,1459.7,88.3,2562.8,258.1,743,1454.6,2596.7,94.3,54.3,10.7
0.164000,736.4,84.8,1464.5,91.4,2586.6,243.6,739.7,1452.8,2604.8,94.3,54.3,9.5
0.166000,736.9,87.5,1468.4,111.1,2613.7,226.0,735.8,1451.4,2613.2,94.4,54.2,9
0.168000,732.8,99.7,1462.9,143.3,2640.5,270.0,731.3,1450.2,2621.8,94.4,54.1,9
0.170000,724.8,103.4,1452.5,157.0,2669.9,329.3,726.1,1449.4,2630.7,94.4,54.1,9.4
0.172000,718.6,92.3,1447.9,147.2,2688.3,341.6,720.4,1448.9,2639.6,94.5,54,9.9
0.174000,715.4,80.0,1448.0,137.1,2691.8,305.0,714.1,1448.7,2648.7,94.5,53.9,10.2
0.176000,712.8,76.7,1445.6,139.7,2676.6,255.9,707.4,1448.7,2657.9,94.5,53.9,10.1
0.178000,707.0,84.3,1433.3,151.7,2647.5,228.5,700.3,1449.1,2667,94.6,53.9,9.7
0.180000,698.3,87.0,1421.8,151.0,2626.4,210.5,692.9,1449.6,2676.2,94.6,53.9,9.1
0.182000,692.1,79.2,1422.3,142.4,2625.9,191.9,685.2,1450.5,2685.2,94.7,54,8.5
0.184000,688.5,71.3,1432.2,139.2,2645.6,172.8,677.3,1451.5,2694.1,94.7,54,8.1
0.186000,684.7,71.9,1446.7,145.7,2685.9,162.5,669.4,1452.7,2702.8,94.7,54,8.1
0.188000,678.6,86.3,1460.5,155.4,2734.6,147.9,661.5,1454,2711.2,94.8,54,8.4
0.190000,670.0,103.1,1465.8,152.6,2758.8,131.7,653.7,1455.4,2719.3,94.8,54,9
0.192000,662.8,97.6,1464.8,139.1,2764.0,127.1,646.1,1456.9,2727,94.9,54,9.5
0.194000,658.0,80.0,1464.8,126.1,2765.5,124.5,638.8,1458.4,2734.2,94.9,54,9.8
0.196000,654.0,67.5,1469.8,122.5,2767.3,114.7,631.9,1459.9,2741,95,54,9.6
0.198000,647.8,68.6,1477.8,133.6,2769.0,109.6,625.5,1461.3,2747.2,95,53.8,8.9
0.200000,638.2,80.4,1481.9,151.4,2769.8,114.5,619.6,1462.7,2752.8,95.1,53.6,8
0.202000,628.3,87.1,1480.4,155.7,2769.6,116.4,614.3,1464,2757.8,95.2,53.4,7
0.204000,620.5,80.1,1477.4,146.5,2768.7,114.5,609.7,1465.1,2762.1,95.2,53.1,6
0.206000,613.4,69.3,1474.9,136.7,2767.2,112.9,605.9,1466.1,2765.6,95.2,52.6,6
0.208000,600.9,66.0,1469.8,136.5,2763.7,117.1,602.9,1466.8,2768.4,95.3,52.1,10.5
0.210000,575.8,76.5,1457.0,145.7,2753.0,137.0,600.7,1467.4,2770.4,95.3,51.4,15.8
0.212000,545.5,89.7,1444.1,142.3,2736.2,159.3,599.3,1467.7,2771.6,95.4,50.7,17.1
0.214000,524.0,93.8,1440.6,127.6,2728.0,156.8,598.9,1467.8,2772,95.4,49.7,9.7
