time,f1,b1,f2,b2,f3,b3,f1p,f2p,f3p,f0,intensity,harmonicity
0.026000,582.6,112.7,1839.9,172.6,2329.9,190.1,604.6,1859.3,2398.5,200.4,65.6,17
0.028000,588.3,103.7,1848.4,176.5,2358.4,217.8,605.7,1860.1,2401.6,200.2,65.8,16.7
0.030000,594.1,94.8,1852.3,183.6,2386.7,242.1,607.4,1861.3,2406.8,200,66,16.4
0.032000,599.2,87.8,1854.7,194.1,2407.4,256.3,609.9,1862.9,2413.9,199.8,66.2,16
0.034000,604.2,82.4,1857.6,206.5,2421.9,264.8,613,1865,2422.9,199.6,66.4,15.7
0.036000,608.8,79.4,1861.4,216.4,2432.4,275.6,616.8,1867.4,2433.5,199.3,66.5,15.4
0.038000,613.4,79.0,1866.6,225.2,2443.5,296.8,621.3,1870,2445.6,199.1,66.5,15
0.040000,618.7,82.0,1873.1,235.3,2458.8,333.1,626.4,1872.9,2459,198.8,66.5,14.7
0.042000,624.5,88.3,1880.2,246.0,2480.0,379.4,632.2,1875.9,2473.5,198.6,66.4,14.4
0.044000,632.3,98.4,1888.1,252.3,2510.5,423.1,638.6,1879,2488.7,198.3,66.2,14.3
0.046000,642.5,110.1,1894.7,247.6,2541.9,434.6,645.5,1882.1,2504.6,198.1,66,14.4
0.048000,656.0,122.0,1899.2,235.4,2565.6,414.2,653,1885,2520.7,197.8,65.8,14.7
0.050000,672.3,132.0,1902.0,223.0,2580.9,381.8,661,1887.7,2536.9,197.5,65.6,15.2
0.052000,688.0,137.4,1903.8,217.3,2591.3,355.2,669.5,1890.1,2552.9,197.3,65.4,15.7
0.054000,703.0,138.8,1905.4,218.1,2600.1,333.2,678.3,1892.2,2568.5,197,65.2,16.2
0.056000,715.9,136.2,1905.4,219.3,2604.2,314.0,687.5,1893.8,2583.4,196.8,65.1,16.6
0.058000,727.7,129.9,1902.8,214.2,2603.5,296.4,697,1894.8,2597.5,196.5,65.1,17
0.060000,738.3,121.6,1898.9,203.6,2603.9,285.7,706.7,1895.3,2610.4,196.3,65.1,17.3
0.062000,746.3,114.3,1895.6,194.2,2610.7,288.0,716.6,1895.1,2622.2,196.1,65.1,17.7
0.064000,752.9,108.3,1892.5,187.7,2624.6,300.6,726.5,1894.2,2632.5,195.9,65.2,18
0.066000,758.0,104.3,1889.6,184.6,2639.1,312.1,736.4,1892.6,2641.4,195.7,65.2,18.3
0.068000,762.2,101.7,1886.7,184.0,2648.8,315.5,746.2,1890.3,2648.8,195.5,65.3,18.5
0.070000,766.0,100.4,1883.6,185.2,2652.1,313.0,755.9,1887.2,2654.6,195.3,65.4,18.7
0.072000,769.4,100.2,1880.5,187.1,2651.3,310.9,765.4,1883.3,2658.7,195.1,65.5,19
0.074000,772.6,100.9,1877.0,190.1,2649.0,311.4,774.5,1878.6,2661.3,195,65.5,19.2
0.076000,776.0,102.3,1872.6,195.6,2646.2,309.6,783.2,1873.3,2662.3,194.8,65.6,19.5
0.078000,779.1,103.7,1866.8,203.0,2643.5,299.9,791.5,1867.2,2661.9,194.7,65.6,19.9
0.080000,782.5,105.4,1858.9,211.6,2640.7,284.7,799.3,1860.5,2660.1,194.6,65.6,20.4
0.082000,785.7,107.7,1851.0,219.5,2639.2,272.6,806.6,1853.2,2657.1,194.5,65.6,20.8
0.084000,788.8,111.2,1844.1,228.1,2639.3,266.6,813.3,1845.4,2653,194.4,65.6,21.1
0.086000,792.3,115.9,1836.9,238.6,2640.0,267.6,819.3,1837,2647.9,194.3,65.6,21.3
0.088000,796.3,120.6,1828.4,248.8,2639.6,275.2,824.8,1828.3,2642,194.3,65.5,21.4
0.090000,801.2,125.1,1817.1,256.6,2636.9,288.6,829.6,1819.2,2635.6,194.3,65.5,21.3
0.092000,806.9,128.5,1804.3,256.5,2631.7,302.0,833.7,1809.8,2628.7,194.2,65.5,21.3
0.094000,813.5,131.2,1790.5,246.6,2623.0,311.1,837.3,1800.3,2621.5,194.2,65.5,21.2
0.096000,821.1,133.1,1776.3,228.5,2608.5,312.3,840.3,1790.7,2614.3,194.2,65.5,21.3
0.098000,828.4,133.8,1764.6,209.4,2590.0,303.0,842.8,1781,2607.1,194.3,65.5,21.5
0.100000,835.4,133.7,1755.5,193.2,2572.2,285.1,844.8,1771.3,2600.1,194.3,65.5,21.6
0.102000,840.6,133.8,1750.0,185.6,2565.6,270.6,846.4,1761.7,2593.5,194.3,65.6,21.8
0.104000,844.3,134.9,1746.4,186.9,2571.5,264.7,847.7,1752.3,2587.4,194.4,65.6,22
0.106000,847.7,136.5,1742.4,193.0,2585.4,265.8,848.7,1743.1,2581.8,194.5,65.6,22.1
0.108000,851.7,137.1,1736.5,195.1,2598.1,270.7,849.6,1734.1,2576.9,194.6,65.6,22.3
0.110000,857.0,136.2,1728.6,189.4,2606.0,280.7,850.3,1725.4,2572.7,194.7,65.6,22.4
0.112000,862.4,134.1,1721.3,179.1,2606.9,294.2,851.1,1716.9,2569.2,194.8,65.6,22.5
0.114000,867.3,131.0,1715.4,168.4,2601.7,304.5,851.9,1708.8,2566.5,194.9,65.6,22.5
0.116000,871.8,127.5,1710.6,159.0,2593.9,304.7,852.8,1701,2564.5,195.1,65.7,22.4
0.118000,875.7,124.2,1706.2,152.5,2587.6,296.2,854,1693.5,2563.3,195.2,65.7,22.2
0.120000,879.7,120.5,1700.8,148.3,2582.4,283.8,855.4,1686.3,2562.7,195.4,65.8,21.9
0.122000,883.3,116.4,1694.5,146.5,2577.2,271.7,857.1,1679.4,2562.7,195.6,65.9,21.6
0.124000,886.5,112.1,1687.6,146.7,2571.3,259.8,859.1,1672.7,2563.3,195.7,65.9,21.5
0.126000,889.0,109.1,1680.0,149.6,2566.1,247.7,861.4,1666.3,2564.3,195.9,66,21.6
0.128000,890.2,108.8,1672.8,155.2,2564.0,237.2,864.1,1660.1,2565.7,196.1,66,22
0.130000,890.0,111.1,1665.7,162.9,2564.7,229.2,867,1653.9,2567.4,196.3,66,22.6
0.132000,888.8,114.7,1658.0,171.4,2566.7,223.1,870.2,1647.9,2569.2,196.5,66.1,23.2
0.134000,887.1,117.7,1650.2,177.6,2567.4,217.8,873.6,1642,2571.1,196.8,66.1,23.5
0.136000,885.6,118.9,1640.7,180.3,2565.0,212.3,877,1636,2573,197,66.1,23.5
0.138000,884.8,118.1,1630.6,179.4,2559.4,207.6,880.5,1630,2574.7,197.2,66.1,23.2
0.140000,884.2,116.8,1620.2,177.0,2552.3,203.7,883.9,1623.9,2576.2,197.4,66.1,22.6
0.142000,883.2,116.3,1609.6,175.7,2546.5,199.8,887,1617.6,2577.4,197.7,66.2,22
0.144000,881.4,117.3,1599.6,176.5,2545.4,192.9,889.8,1611.2,2578.2,197.9,66.2,21.5
0.146000,878.8,119.7,1588.7,179.3,2549.3,181.5,892,1604.5,2578.6,198.2,66.2,21.3
0.148000,875.7,122.5,1577.9,181.8,2554.9,170.1,893.7,1597.6,2578.5,198.4,66.2,21.1
0.150000,872.5,125.3,1568.3,181.3,2559.8,162.2,894.5,1590.4,2578,198.6,66.2,21.1
0.152000,868.8,127.5,1560.4,177.4,2563.5,160.0,894.3,1582.9,2576.9,198.9,66.2,21.1
0.154000,864.7,129.2,1554.9,173.3,2566.6,164.0,893.1,1575,2575.3,199.1,66.2,21.3
0.156000,859.4,131.5,1550.4,172.0,2570.9,173.1,890.6,1566.9,2573.2,199.3,66.2,21.6
0.158000,853.6,134.8,1547.2,175.2,2576.7,181.7,886.8,1558.4,2570.5,199.6,66.2,22.4
0.160000,847.4,138.6,1544.6,181.5,2582.5,183.9,881.6,1549.6,2567.5,199.8,66.2,23.3
0.162000,841.1,140.3,1541.6,187.2,2584.9,177.5,874.8,1540.4,2564,200,66.1,24.1
0.164000,835.5,138.5,1537.1,189.1,2582.3,167.5,866.5,1531,2560.2,200.2,66.1,24.6
0.166000,829.4,134.1,1530.2,188.8,2576.2,157.5,856.6,1521.4,2556,200.5,66,24.4
0.168000,822.9,130.3,1521.6,189.2,2570.0,151.4,845,1511.5,2551.6,200.7,66,23.5
0.170000,815.3,129.0,1511.4,191.5,2565.3,150.3,831.9,1501.5,2547,200.9,65.9,22.3
0.172000,806.1,130.6,1499.4,195.3,2561.3,155.6,817.2,1491.3,2542.2,201,65.8,21
0.174000,796.6,133.3,1487.2,198.1,2556.3,166.2,801.1,1481,2537.4,201.2,65.7,19.9
0.176000,787.0,135.1,1475.0,197.8,2549.5,178.9,783.6,1470.7,2532.6,201.4,65.7,19.2
0.178000,777.2,135.4,1463.7,193.8,2541.8,188.5,765,1460.4,2527.8,201.5,65.5,19
0.180000,767.6,135.5,1454.6,188.2,2535.7,189.5,745.3,1450.2,2523.2,201.7,65.4,18.9
0.182000,756.0,136.5,1446.4,182.2,2528.8,182.3,724.8,1440.2,2518.6,201.8,65.3,18.9
0.184000,742.7,138.7,1438.7,177.2,2518.9,171.0,703.7,1430.4,2514.3,201.9,65.1,18.8
0.186000,727.6,141.1,1430.4,172.9,2505.5,157.7,682.2,1420.8,2510.2,202.1,64.8,18.6
0.188000,710.8,143.3,1421.2,168.6,2490.7,142.4,660.6,1411.6,2506.3,202.2,64.5,18.2
0.190000,694.4,145.3,1412.4,165.1,2478.9,127.4,639.2,1402.8,2502.8,202.3,64.2,17.8
0.192000,677.2,148.2,1403.5,164.0,2470.6,112.7,618.1,1394.5,2499.5,202.3,63.8,17.3
0.194000,661.2,152.6,1395.3,167.3,2466.3,100.9,597.8,1386.7,2496.5,202.4,63.3,16.7
0.196000,645.8,160.1,1387.5,177.1,2464.9,92.9,578.4,1379.4,2493.8,202.5,62.7,16.1
0.198000,629.7,174.7,1379.9,195.3,2465.3,90.8,560.3,1372.8,2491.4,202.5,62,15.2
0.200000,613.9,199.0,1373.9,217.2,2466.9,97.4,543.6,1366.8,2489.3,202.6,61.2,14.3
0.202000,596.4,238.7,1369.1,235.6,2468.7,117.4,528.6,1361.6,2487.5,202.6,60.4,13.4
0.204000,579.4,290.2,1364.0,241.7,2469.0,153.0,515.5,1357,2486,202.6,59.4,12.6
0.206000,554.9,359.2,1356.6,249.4,2472.1,200.3,504.6,1353.3,2484.8,202.7,58.5,13.1
0.208000,482.3,458.1,1342.7,288.2,2494.3,243.3,495.9,1350.4,2483.9,202.7,57.6,18.6
0.210000,359.8,423.1,1316.3,351.3,2518.7,262.9,489.6,1348.2,2483.2,202.7,56.6,25.1
0.212000,296.0,328.5,1301.3,412.3,2523.7,270.0,485.8,1347,2482.9,202.7,55.6,27.4
0.214000,263.6,274.6,1344.0,504.6,2522.8,285.5,484.5,1346.5,2482.7,202.7,54.6,20.4
