time,f1,b1,f2,b2,f3,b3,f1p,f2p,f3p,f0,intensity,harmonicity
0.026000,283.8,106.2,988.0,136.9,2335.3,493.7,335.2,980.2,2325.4,153.5,76.9,13.9
0.028000,294.6,99.7,978.6,121.5,2342.4,351.6,336.6,980.3,2325.9,152.8,78.5,20.4
0.030000,308.3,101.0,972.2,99.6,2343.8,240.9,338.8,980.3,2326.8,152.1,79.8,17.6
0.032000,326.8,102.5,970.9,82.4,2345.8,182.7,341.9,980.4,2327.9,151.3,80.8,10.9
0.034000,347.4,96.0,973.1,68.8,2346.0,154.6,345.8,980.4,2329.4,150.6,81.6,5.4
0.036000,365.6,82.2,976.5,57.7,2343.0,141.5,350.4,980.4,2331.1,149.8,82.2,4.9
0.038000,379.2,67.0,979.8,50.0,2335.6,138.3,355.5,980.3,2333,149,82.6,5.7
0.040000,388.4,54.4,982.2,46.1,2323.3,142.3,361.1,980.1,2335.1,148.2,83,6.8
0.042000,394.5,45.3,984.1,44.4,2310.4,144.9,367,979.9,2337.3,147.4,83.2,8.2
0.044000,399.1,38.9,985.8,43.8,2306.3,139.7,373.1,979.4,2339.6,146.6,83.4,9.5
0.046000,402.8,34.7,986.8,44.3,2312.7,131.1,379.3,978.9,2341.9,145.8,83.5,10.9
0.048000,406.0,32.0,985.3,46.5,2323.5,126.2,385.4,978.1,2344.2,144.9,83.7,12.6
0.050000,408.8,29.7,980.9,49.1,2333.8,126.5,391.4,977.1,2346.5,144.1,83.8,14.4
0.052000,410.6,27.0,976.1,51.6,2342.2,132.2,397.1,975.9,2348.8,143.2,84,16
0.054000,411.8,24.3,973.2,55.8,2350.8,151.3,402.4,974.5,2351,142.3,84.1,17.2
0.056000,413.0,22.0,972.3,62.2,2364.8,191.3,407.2,972.8,2353,141.3,84.3,17.6
0.058000,413.9,19.6,970.8,65.8,2375.5,251.8,411.5,970.9,2355,140.4,84.4,17.5
0.060000,413.5,16.9,966.7,61.6,2364.0,283.0,415.2,968.7,2356.9,139.4,84.5,16.9
0.062000,412.2,14.8,964.1,53.0,2360.5,241.4,418.4,966.4,2358.7,138.4,84.6,16
0.064000,410.9,13.6,965.2,45.0,2365.9,193.7,420.9,963.9,2360.4,137.4,84.6,14.7
0.066000,409.9,13.1,966.8,40.4,2364.4,158.8,422.7,961.2,2362,136.3,84.5,13.1
0.068000,409.4,12.9,965.7,39.0,2354.6,130.5,424,958.5,2363.6,135.2,84.3,10.5
0.070000,410.3,12.8,961.5,40.7,2347.6,104.9,424.8,955.6,2365.2,134.1,83.9,7.5
0.072000,412.7,13.4,955.8,46.1,2350.0,85.9,425,952.8,2366.8,132.9,83.4,4.7
0.074000,415.4,15.5,949.3,55.5,2359.0,75.5,424.8,950,2368.5,131.8,82.8,2.8
0.076000,416.5,20.3,941.2,67.3,2369.6,70.5,424.3,947.3,2370.3,130.6,82.1,2.3
0.078000,415.7,27.1,935.2,75.4,2378.0,66.1,423.5,944.7,2372.2,129.3,81.2,3.2
0.080000,414.9,32.9,936.3,77.8,2384.1,60.7,422.4,942.4,2374.3,128.1,80.3,4.9
0.082000,414.9,37.9,941.1,82.4,2390.9,56.4,421.3,940.4,2376.5,126.9,79.5,6.9
0.084000,414.7,46.3,940.4,100.4,2399.5,53.1,420.2,938.7,2379,125.6,78.7,8.6
0.086000,415.9,57.7,929.2,137.6,2405.3,47.7,419,937.5,2381.6,124.3,78.2,9.5
0.088000,419.1,63.8,909.6,181.8,2405.0,42.1,418,936.7,2384.4,123.1,77.8,10.1
0.090000,420.2,59.6,899.2,191.8,2401.1,40.5,417.1,936.4,2387.3,121.8,77.5,10.5
0.092000,417.8,49.1,917.5,148.6,2397.2,47.7,416.4,936.7,2390.4,120.5,77.4,10.7
0.094000,416.8,39.7,943.6,104.3,2393.9,67.7,416,937.6,2393.6,119.3,77.4,10.7
0.096000,419.9,32.0,961.9,79.2,2391.0,97.7,415.7,939.2,2396.9,118,77.5,10.5
0.098000,423.8,26.8,971.1,69.3,2391.0,120.2,415.7,941.4,2400.2,116.8,77.7,9.8
0.100000,425.6,25.7,971.5,73.6,2396.9,114.1,415.8,944.4,2403.5,115.6,77.9,8.9
0.102000,426.3,26.8,967.6,87.8,2403.0,89.5,416.1,948.1,2406.6,114.4,78.1,8
0.104000,427.5,25.9,966.1,100.4,2405.1,67.5,416.5,952.5,2409.7,113.2,78.2,7.2
0.106000,428.5,23.2,969.6,107.7,2405.5,52.7,416.9,957.6,2412.5,112,78.2,6.7
0.108000,427.0,22.2,974.6,120.9,2406.7,44.9,417.4,963.4,2415,110.9,78.1,6.4
0.110000,422.5,25.7,977.3,154.1,2409.7,42.7,417.7,970,2417.2,109.8,77.9,6.1
0.112000,417.7,32.1,978.6,197.0,2412.9,41.0,417.9,977.3,2419,108.7,77.6,6.1
0.114000,416.6,35.6,982.0,219.2,2413.9,36.4,417.8,985.3,2420.5,107.6,77.2,6.2
0.116000,418.7,35.5,988.4,222.2,2413.3,30.9,417.4,993.9,2421.5,106.6,76.7,6.5
0.118000,419.3,37.3,995.6,236.1,2411.8,28.6,416.7,1003.2,2422,105.6,76.1,7
0.120000,414.3,48.4,1001.3,299.2,2409.3,33.3,415.5,1013.1,2422.1,104.6,75.5,7.8
0.122000,406.4,69.7,1005.3,431.2,2406.4,44.6,413.8,1023.6,2421.7,103.6,74.8,8.6
0.124000,404.6,87.2,1004.3,599.6,2404.6,54.3,411.7,1034.6,2420.9,102.7,74.2,9.5
0.126000,408.0,89.7,1001.2,703.0,2405.8,55.5,409,1046.2,2419.8,101.8,73.7,10.2
0.128000,405.1,85.5,1016.8,648.6,2410.5,53.6,405.7,1058.2,2418.3,100.9,73.2,11.1
0.130000,391.7,84.3,1063.5,520.4,2418.8,59.5,401.9,1070.7,2416.6,100.1,72.8,12
0.132000,379.7,83.7,1114.1,418.4,2429.5,78.3,397.7,1083.6,2414.7,99.3,72.6,12.8
0.134000,381.4,77.3,1136.3,354.0,2437.2,102.1,392.9,1097,2412.8,98.5,72.3,13.4
0.136000,391.0,66.4,1133.0,304.4,2436.7,116.9,387.8,1110.6,2410.8,97.8,72.1,13.7
0.138000,395.9,58.3,1122.1,255.5,2429.3,126.5,382.3,1124.6,2409,97,71.8,13.9
0.140000,387.2,60.5,1129.1,209.7,2420.2,151.1,376.6,1138.9,2407.4,96.4,71.6,13.8
0.142000,368.0,70.1,1160.1,160.3,2411.9,199.2,370.7,1153.4,2406.1,95.7,71.3,13.6
0.144000,356.7,76.5,1187.4,118.1,2406.3,244.8,364.7,1168.2,2405.3,95,71.1,13.4
0.146000,360.9,76.1,1203.5,92.6,2409.3,265.4,358.7,1183.1,2405,94.4,70.9,13.1
0.148000,367.0,75.3,1215.0,78.8,2420.5,263.2,352.8,1198.1,2405.3,93.8,70.6,12.7
0.150000,358.5,85.6,1225.5,76.1,2429.9,253.0,347.1,1213.3,2406.2,93.2,70.4,12.2
0.152000,333.1,111.2,1236.3,82.9,2428.6,233.9,341.7,1228.4,2407.9,92.7,70.3,11.7
0.154000,311.0,139.8,1247.8,94.4,2423.4,199.4,336.7,1243.6,2410.3,92.1,70.1,11.2
0.156000,310.7,150.7,1258.4,105.0,2421.1,161.5,332.1,1258.6,2413.4,91.6,69.9,10.9
0.158000,322.1,135.6,1265.3,107.9,2419.9,136.7,327.9,1273.5,2417.4,91.1,69.7,10.6
0.160000,322.9,115.1,1268.8,107.1,2416.6,130.1,324.3,1288.3,2422,90.6,69.6,10.4
0.162000,308.9,112.1,1278.8,110.7,2408.9,137.7,321.1,1302.7,2427.3,90.1,69.5,10.3
0.164000,300.0,118.8,1298.6,108.4,2399.7,156.1,318.6,1316.8,2433.3,89.6,69.4,10.2
0.166000,309.7,117.1,1317.0,95.5,2395.8,173.1,316.6,1330.5,2439.7,89.1,69.4,11
0.168000,330.0,103.1,1331.0,80.8,2402.3,176.6,315,1343.7,2446.6,88.6,69.3,16.7
0.170000,343.5,87.3,1342.6,71.8,2420.1,167.0,314,1356.3,2453.8,88.2,69.2,23.3
0.172000,340.1,84.9,1355.7,77.4,2446.8,149.2,313.4,1368.3,2461.1,87.7,69.2,25.7
0.174000,329.0,104.3,1380.3,102.0,2470.1,119.9,313.2,1379.5,2468.4,87.3,69.1,18.8
0.176000,326.6,129.4,1413.0,119.8,2481.0,92.7,313.3,1390,2475.7,86.9,68.9,-3.2
0.178000,336.1,127.4,1426.8,109.0,2485.0,78.8,313.7,1399.6,2482.6,86.4,68.6,-44
0.180000,350.2,104.4,1427.5,86.9,2487.9,69.8,314.2,1408.2,2489.2,86,68.2,-94.9
0.182000,358.7,79.3,1425.8,68.8,2491.6,64.1,314.9,1415.8,2495.2,85.6,67.5,-145.7
0.184000,355.3,63.7,1425.3,61.6,2496.0,66.4,315.5,1422.4,2500.5,85.2,66.6,-186.5
0.186000,340.7,60.6,1427.2,70.2,2500.1,85.6,316.2,1427.8,2505,84.8,65.7,-208.5
0.188000,317.6,67.3,1431.4,101.2,2504.8,134.7,316.7,1432.1,2508.6,84.4,64.7,-215.5
0.190000,287.8,76.9,1434.6,159.6,2517.0,213.4,317.2,1435.2,2511.3,84,63.7,-213.1
0.192000,254.1,80.3,1432.4,229.5,2546.2,256.1,317.4,1437,2512.9,83.7,62.8,-206.6
0.194000,222.2,68.2,1422.2,252.7,2569.8,196.9,317.5,1437.6,2513.4,83.3,61.8,-200.9
