time,f1,b1,f2,b2,f3,b3,f1p,f2p,f3p,f0,intensity,harmonicity
0.026000,595.5,237.6,845.1,385.9,2387.6,1113.4,448,830.3,2417.5,119.3,57.3,8.7
0.028000,579.7,274.9,818.9,315.7,2364.4,1115.0,447.7,831.1,2417.9,119.4,58.2,14.9
0.030000,533.9,303.3,819.1,221.2,2372.0,974.9,447.2,832.4,2418.6,119.5,58.9,12.3
0.032000,481.0,286.5,838.1,156.1,2391.7,709.4,446.5,834.1,2419.5,119.6,59.6,5.8
0.034000,447.4,263.4,854.8,133.1,2402.5,540.5,445.6,836.4,2420.7,119.7,60.4,0.6
0.036000,424.3,241.2,863.7,127.0,2411.0,455.1,444.6,839.1,2422.1,119.7,61.1,0.8
0.038000,402.0,219.2,864.8,123.7,2423.3,407.4,443.5,842.2,2423.7,119.8,61.8,3
0.040000,381.5,196.1,857.4,122.0,2440.9,403.1,442.2,845.8,2425.5,119.8,62.6,5.8
0.042000,371.1,167.2,845.7,122.3,2453.4,441.0,440.9,849.8,2427.5,119.8,63.4,8.4
0.044000,370.9,142.9,835.1,127.7,2450.6,497.6,439.6,854.1,2429.6,119.8,64.1,10.1
0.046000,375.8,137.0,829.9,137.9,2438.5,497.4,438.2,858.8,2431.8,119.8,64.8,10.2
0.048000,383.0,145.3,832.2,143.9,2432.4,437.7,436.9,863.7,2434,119.8,65.5,8.6
0.050000,391.8,147.6,841.5,137.0,2432.5,382.4,435.7,868.9,2436.4,119.8,66.1,6
0.052000,399.7,133.2,852.8,121.5,2434.6,347.5,434.6,874.4,2438.7,119.8,66.6,3.4
0.054000,406.1,114.4,865.0,107.0,2441.3,339.6,433.6,880,2441.1,119.7,67,1.8
0.056000,411.5,106.7,879.1,101.7,2453.1,379.6,432.8,885.8,2443.4,119.7,67.2,1.9
0.058000,417.1,114.0,895.0,103.5,2463.8,464.3,432.2,891.7,2445.6,119.6,67.4,3.7
0.060000,422.5,125.8,907.5,100.9,2468.5,527.4,431.8,897.6,2447.8,119.5,67.5,6.5
0.062000,426.2,124.6,915.8,88.0,2474.9,513.0,431.7,903.7,2449.8,119.5,67.5,9.3
0.064000,427.4,112.2,923.5,72.3,2489.6,453.9,431.9,909.7,2451.8,119.4,67.6,11.4
0.066000,428.0,102.3,932.4,60.4,2506.9,402.0,432.5,915.7,2453.6,119.4,67.7,12.2
0.068000,431.0,101.1,939.5,55.1,2513.2,388.3,433.3,921.6,2455.2,119.3,67.9,11.9
0.070000,437.3,102.7,943.4,54.8,2509.1,399.9,434.4,927.4,2456.7,119.2,68.1,10.9
0.072000,444.5,106.3,946.5,60.7,2499.6,412.9,435.9,933.2,2458,119.2,68.3,9.7
0.074000,451.3,115.5,951.6,74.8,2480.6,404.1,437.8,938.7,2459.2,119.1,68.6,8.8
0.076000,457.5,126.7,957.5,90.1,2460.7,377.2,439.9,944.2,2460.2,119.1,68.9,8.4
0.078000,462.5,134.8,961.5,97.5,2449.2,348.8,442.4,949.4,2461.1,119,69.1,8.2
0.080000,464.9,140.0,962.0,98.0,2446.9,325.3,445.2,954.4,2461.9,119,69.4,8.1
0.082000,466.3,147.3,960.2,99.6,2445.9,297.4,448.3,959.2,2462.5,118.9,69.8,8.2
0.084000,469.0,150.8,958.8,101.3,2439.0,257.3,451.6,963.8,2463,118.9,70.1,8.5
0.086000,472.4,139.3,960.4,95.6,2431.9,213.4,455.1,968.2,2463.4,118.9,70.4,9.1
0.088000,474.6,124.3,964.6,88.7,2434.8,182.2,458.9,972.3,2463.8,118.8,70.7,10
0.090000,476.1,120.4,970.3,92.1,2448.4,167.8,462.8,976.2,2464.1,118.8,71,11.1
0.092000,478.7,128.6,975.3,112.1,2459.6,165.1,466.8,979.8,2464.5,118.8,71.2,12.3
0.094000,483.1,135.6,978.3,144.1,2459.5,163.6,470.9,983.2,2464.8,118.8,71.4,13.4
0.096000,486.7,130.9,979.8,169.8,2454.8,157.7,475,986.3,2465.2,118.8,71.5,14.2
0.098000,487.8,120.3,981.5,177.7,2454.4,150.2,479.2,989.2,2465.7,118.8,71.7,14.9
0.100000,488.2,113.6,983.2,172.9,2458.1,146.5,483.3,991.9,2466.3,118.8,71.9,15.5
0.102000,489.3,109.8,984.3,157.3,2458.9,145.0,487.3,994.4,2467,118.8,72.1,16.1
0.104000,490.6,103.8,985.1,136.1,2454.6,141.4,491.2,996.7,2467.8,118.8,72.3,16.6
0.106000,491.8,98.2,986.6,120.9,2450.7,138.2,495,998.8,2468.8,118.9,72.5,17.2
0.108000,493.6,100.8,989.3,120.1,2449.9,139.4,498.5,1000.7,2470,118.9,72.7,17.9
0.110000,497.2,113.4,993.0,131.7,2451.6,143.2,501.9,1002.4,2471.4,118.9,72.8,18.5
0.112000,500.9,124.4,996.0,140.3,2454.0,144.6,504.9,1004,2473.1,119,72.9,19.1
0.114000,502.8,126.6,998.8,138.6,2456.4,144.0,507.7,1005.4,2474.9,119,73,19.5
0.116000,503.5,126.9,1002.8,136.9,2459.4,147.1,510.2,1006.7,2477,119,73.1,19.8
0.118000,505.1,135.2,1008.6,146.8,2463.2,154.9,512.4,1007.9,2479.3,119.1,73.1,19.6
0.120000,507.8,147.3,1014.0,160.9,2466.6,159.3,514.2,1009,2481.8,119.1,73.2,19.3
0.122000,509.5,151.5,1016.5,163.2,2469.9,158.2,515.7,1009.9,2484.5,119.2,73.2,19.1
0.124000,509.8,149.1,1017.8,157.1,2475.5,159.6,516.9,1010.8,2487.4,119.2,73.3,19.4
0.126000,510.6,151.0,1020.0,158.4,2486.6,173.3,517.7,1011.6,2490.5,119.3,73.3,20.5
0.128000,512.6,158.0,1022.6,167.8,2500.2,192.5,518.2,1012.3,2493.8,119.4,73.4,22.6
0.130000,513.8,159.1,1023.5,169.0,2510.0,200.9,518.4,1012.9,2497.2,119.4,73.4,25.3
0.132000,513.1,152.3,1023.6,158.8,2515.9,199.0,518.4,1013.5,2500.7,119.5,73.4,27.8
0.134000,512.0,146.8,1024.7,150.4,2520.7,197.6,518,1014,2504.3,119.6,73.5,29.7
0.136000,511.9,147.6,1026.6,150.2,2525.3,201.1,517.4,1014.4,2508,119.7,73.5,30.3
0.138000,512.2,148.8,1026.5,149.5,2529.2,202.3,516.6,1014.8,2511.6,119.8,73.5,29.7
0.140000,511.5,144.4,1024.2,141.6,2534.1,197.0,515.6,1015.2,2515.2,119.9,73.5,28.5
0.142000,510.2,139.2,1022.0,134.7,2541.5,192.3,514.5,1015.4,2518.8,120,73.5,27.1
0.144000,509.7,139.4,1020.7,136.7,2550.1,194.5,513.2,1015.6,2522.3,120.1,73.5,26.2
0.146000,509.8,140.6,1019.5,140.2,2555.6,198.1,511.9,1015.8,2525.6,120.2,73.6,26.4
0.148000,509.2,136.7,1017.5,136.0,2557.4,196.2,510.5,1015.9,2528.7,120.4,73.6,27.6
0.150000,508.2,131.6,1015.7,129.5,2556.5,191.6,509.1,1015.9,2531.7,120.5,73.6,29.3
0.152000,507.7,132.7,1015.0,131.1,2555.0,192.6,507.7,1015.9,2534.4,120.6,73.5,30.9
0.154000,508.1,137.2,1014.4,137.2,2554.5,197.0,506.4,1015.8,2536.9,120.8,73.5,31.8
0.156000,508.2,137.2,1013.2,137.3,2556.1,197.2,505.2,1015.7,2539.1,121,73.5,31.4
0.158000,508.0,134.9,1012.0,134.9,2559.8,195.7,504.1,1015.5,2540.9,121.2,73.5,29.8
0.160000,508.1,137.2,1011.3,140.2,2564.7,200.6,503.1,1015.2,2542.5,121.4,73.5,27.5
0.162000,508.7,141.9,1010.6,150.5,2567.1,209.5,502.2,1014.9,2543.7,121.6,73.5,25.1
0.164000,508.5,138.9,1009.0,150.9,2563.4,210.2,501.6,1014.5,2544.6,121.8,73.5,23
0.166000,506.9,128.3,1006.7,140.7,2553.1,201.3,501.1,1014.1,2545.1,122,73.6,21.6
0.168000,505.3,119.0,1004.4,133.1,2540.4,193.0,500.8,1013.6,2545.3,122.3,73.6,20.8
0.170000,504.6,114.4,1003.0,131.8,2531.2,189.6,500.6,1013.1,2545.2,122.6,73.6,20.3
0.172000,504.2,109.3,1002.0,128.3,2525.8,183.5,500.7,1012.6,2544.8,122.8,73.6,19.9
0.174000,503.6,102.7,1000.9,120.5,2520.0,169.9,500.9,1012,2544,123.1,73.6,19.6
0.176000,503.3,98.9,999.8,115.6,2510.6,154.2,501.3,1011.4,2543,123.5,73.7,19.3
0.178000,503.3,98.3,999.1,115.2,2501.6,143.3,501.8,1010.8,2541.8,123.8,73.7,19.3
0.180000,503.4,95.7,999.0,112.0,2497.5,136.2,502.5,1010.2,2540.3,124.2,73.7,19.3
0.182000,503.2,89.9,999.2,104.2,2497.5,129.7,503.3,1009.6,2538.7,124.5,73.7,19.3
0.184000,502.9,84.7,999.4,97.6,2497.6,125.3,504.1,1009.1,2536.9,124.9,73.7,19.1
0.186000,502.7,80.9,1000.1,93.0,2494.9,125.4,505,1008.5,2535,125.4,73.7,18.6
0.188000,502.7,76.1,1001.4,86.5,2492.7,129.5,505.8,1008.1,2533.1,125.8,73.6,17.6
0.190000,503.5,72.2,1003.4,79.6,2497.0,138.5,506.7,1007.7,2531.1,126.2,73.6,16.4
0.192000,505.0,73.9,1006.6,78.5,2509.8,153.8,507.5,1007.3,2529.2,126.7,73.5,15.1
0.194000,507.0,80.9,1011.8,81.9,2526.1,170.1,508.2,1007.1,2527.4,127.2,73.4,14.1
0.196000,508.7,87.1,1017.4,82.4,2536.6,176.7,508.8,1006.9,2525.7,127.7,73.3,13.6
0.198000,509.7,90.0,1022.1,77.1,2537.7,172.0,509.2,1006.9,2524.1,128.3,73.2,13.3
0.200000,510.4,92.8,1025.3,71.0,2529.8,159.8,509.4,1007,2522.7,128.8,73.1,13.2
0.202000,511.3,95.4,1027.1,66.5,2518.9,147.5,509.5,1007.2,2521.5,129.4,72.9,13.2
0.204000,511.6,92.9,1027.2,61.7,2511.0,142.0,509.2,1007.5,2520.6,130,72.7,13.2
0.206000,511.1,86.4,1026.5,57.1,2509.0,147.6,508.7,1008,2520,130.6,72.4,13.1
0.208000,510.9,82.8,1026.9,58.0,2517.4,170.3,508,1008.6,2519.7,131.3,72.1,13.1
0.210000,511.1,83.8,1029.4,66.7,2534.3,203.6,506.9,1009.3,2519.8,131.9,71.7,13.2
0.212000,510.6,86.3,1032.8,81.1,2547.6,225.6,505.5,1010.2,2520.1,132.6,71.3,13.2
0.214000,508.9,90.5,1034.2,97.3,2550.6,230.4,503.8,1011.3,2520.9,133.3,70.9,13.1
0.216000,507.2,97.4,1033.0,113.1,2549.1,227.3,501.8,1012.4,2521.9,134,70.5,12.8
0.218000,506.3,106.3,1030.7,128.5,2550.2,219.9,499.5,1013.7,2523.3,134.7,70,12.4
0.220000,505.1,115.7,1028.0,141.1,2556.3,209.3,496.9,1015.1,2525.1,135.5,69.6,11.9
0.222000,501.7,130.2,1022.5,152.2,2564.6,199.7,494,1016.7,2527.1,136.2,69.2,11.5
0.224000,496.4,151.6,1013.7,159.6,2569.1,193.8,490.9,1018.3,2529.5,137,68.8,11.1
0.226000,490.4,171.1,1005.3,156.3,2565.4,188.7,487.5,1020,2532.1,137.8,68.5,10.9
0.228000,483.2,182.7,999.5,143.1,2555.3,181.4,483.9,1021.8,2535,138.5,68.3,10.8
0.230000,473.7,191.7,994.9,125.5,2544.4,172.9,480.2,1023.6,2538.1,139.3,68.1,10.8
0.232000,464.3,198.5,992.1,108.4,2540.4,168.1,476.4,1025.5,2541.3,140.1,67.9,10.9
0.234000,456.5,198.1,991.6,92.4,2544.8,168.4,472.5,1027.4,2544.7,140.9,67.7,10.9
0.236000,448.1,189.4,992.7,78.1,2554.5,174.1,468.5,1029.3,2548.1,141.7,67.6,11
0.238000,439.5,175.4,994.9,67.1,2564.5,185.6,464.6,1031.2,2551.6,142.5,67.4,10.9
0.240000,434.0,161.3,998.4,60.0,2568.5,199.8,460.7,1033,2555.1,143.2,67.2,10.9
0.242000,431.6,148.2,1004.0,55.5,2564.8,214.8,456.9,1034.8,2558.5,144,67,10.9
0.244000,430.8,134.9,1011.1,53.2,2557.0,226.1,453.2,1036.5,2561.8,144.7,66.8,11
0.246000,430.7,120.5,1018.4,53.1,2551.6,227.2,449.8,1038.1,2565,145.5,66.5,11.1
0.248000,431.2,108.3,1024.6,55.1,2551.1,216.6,446.5,1039.6,2567.9,146.2,66.1,11.5
0.250000,431.9,101.8,1029.2,60.5,2550.4,202.9,443.6,1040.9,2570.6,146.9,65.7,11.9
0.252000,433.3,100.6,1033.4,72.8,2543.8,194.8,440.9,1042.1,2573.1,147.6,65.1,12.3
0.254000,435.9,106.8,1038.6,97.2,2535.0,203.1,438.7,1043.2,2575.2,148.2,64.5,12.4
0.256000,440.7,131.0,1048.9,145.1,2537.2,242.2,436.7,1044.1,2577,148.8,63.8,13
0.258000,450.3,187.8,1069.4,225.9,2557.9,324.9,435.2,1044.8,2578.4,149.4,62.9,17.7
0.260000,465.8,282.6,1095.0,310.0,2584.6,431.7,434.1,1045.3,2579.4,150,62,23
0.262000,481.6,415.4,1111.2,364.3,2596.5,533.0,433.5,1045.6,2580,150.5,61,24.1
0.264000,484.6,646.2,1108.4,403.6,2582.3,656.2,433.2,1045.7,2580.2,151,59.9,16.3
