time,f1,b1,f2,b2,f3,b3,f1p,f2p,f3p,f0,intensity,harmonicity
0.025989,544.8,97.6,1460.4,40.3,2599.3,75.5,560.9,1472.7,2613.9,116.8,60.1,7.6
0.027989,553.2,100.9,1461.5,43.2,2609.2,75.8,560.5,1467.6,2613.8,116.9,60.1,9.1
0.029989,561.6,107.3,1458.2,51.4,2617.9,81.7,559.9,1459.3,2613.7,117,60.1,10.8
0.031989,565.6,108.0,1448.8,59.2,2618.6,86.1,559,1448,2613.3,117.1,60.2,12.3
0.033989,563.8,98.7,1436.8,60.9,2614.0,84.0,557.8,1434,2612.5,117.2,60.3,13.5
0.035989,560.7,90.5,1424.3,60.0,2610.2,81.4,556.4,1417.8,2611.2,117.3,60.5,14.4
0.037989,559.1,93.1,1407.9,63.3,2610.5,89.9,554.6,1399.7,2609.3,117.4,60.6,14.8
0.039989,557.8,102.0,1385.9,69.6,2614.3,116.9,552.6,1380.2,2606.9,117.6,60.6,15
0.041989,554.2,102.4,1364.5,71.1,2616.8,151.5,550.3,1359.9,2604,117.7,60.7,15
0.043989,549.7,96.4,1346.6,68.7,2612.4,164.8,547.6,1339.1,2600.9,117.9,60.8,15
0.045989,546.3,97.3,1325.9,69.7,2600.7,149.7,544.6,1318.3,2597.8,118.1,60.8,14.9
0.047989,542.2,105.5,1296.8,75.8,2586.9,127.9,541.2,1298,2595.1,118.2,60.9,14.7
0.049989,535.2,105.1,1266.6,77.9,2578.6,110.7,537.5,1278.4,2593.3,118.4,61,14.5
0.051989,528.6,95.1,1247.2,73.1,2579.8,97.6,533.4,1259.9,2592.9,118.6,61.1,14.2
0.053989,523.9,90.3,1236.6,69.3,2588.6,88.4,528.9,1242.7,2594.2,118.9,61.2,14
0.055989,520.5,95.3,1226.2,69.8,2599.8,84.7,524.2,1226.9,2597.7,119.1,61.4,13.8
0.057989,517.1,98.0,1213.6,68.7,2609.1,83.5,519.3,1212.5,2603.6,119.3,61.6,13.8
0.059989,513.4,90.8,1201.6,61.4,2617.2,79.1,514.3,1199.6,2611.9,119.6,61.8,13.7
0.061989,508.8,81.9,1189.8,51.9,2626.1,74.9,509.2,1188.1,2622.4,119.9,62,13.7
0.063989,502.6,77.6,1176.7,45.2,2635.9,79.9,504.3,1177.9,2635,120.2,62.3,13.8
0.065989,496.9,73.9,1165.6,41.4,2645.4,96.8,499.7,1168.9,2649,120.5,62.5,13.9
0.067989,493.8,66.6,1159.0,39.0,2656.8,118.6,495.4,1161,2663.8,120.8,62.8,14.2
0.069989,492.4,59.7,1155.3,38.5,2673.0,138.9,491.6,1153.9,2678.5,121.1,63,14.5
0.071989,491.1,57.8,1151.7,41.5,2693.5,161.3,488.5,1147.7,2692.3,121.5,63.3,14.8
0.073989,490.6,58.2,1146.9,46.2,2713.7,190.4,486.1,1142.1,2704.2,121.8,63.5,15.1
0.075989,490.6,55.4,1141.8,48.4,2728.6,212.7,484.5,1137.1,2713.6,122.2,63.6,15.2
0.077989,490.1,50.6,1136.9,47.9,2733.5,207.9,483.6,1132.8,2719.8,122.6,63.8,15.3
0.079989,488.8,48.1,1131.1,47.3,2726.3,191.4,483.5,1129.1,2722.3,123,63.9,15.4
0.081989,486.7,47.7,1125.3,46.9,2711.4,188.4,484,1126,2720.9,123.4,64,15.4
0.083989,485.1,45.8,1122.1,45.2,2696.5,199.5,484.9,1123.7,2715.9,123.9,64.1,15.3
0.085989,484.2,42.7,1121.5,43.2,2688.8,212.6,486.1,1122.3,2707.6,124.3,64.1,14.9
0.087989,483.5,41.2,1121.7,42.9,2688.4,220.1,487.4,1122,2696.7,124.8,64.1,14.2
0.089989,482.2,41.9,1121.1,43.6,2688.0,220.5,488.4,1122.7,2684,125.2,64,13.4
0.091989,480.8,42.5,1120.5,43.5,2682.2,209.5,489.1,1124.8,2670.7,125.7,63.9,12.5
0.093989,480.9,43.4,1122.5,42.8,2670.4,182.4,489.2,1128.2,2657.9,126.2,63.7,11.7
0.095989,483.1,47.2,1128.2,43.3,2654.1,147.2,488.4,1132.9,2646.5,126.6,63.5,10.9
0.097989,485.9,53.1,1136.2,44.9,2639.2,121.8,486.7,1139.1,2637.7,127.1,63.3,10
0.099989,485.5,58.5,1143.8,47.9,2631.2,114.0,484,1146.5,2632.2,127.6,63.1,9
0.101989,482.4,65.0,1152.5,53.6,2627.4,120.0,480.2,1155,2630.5,128.1,62.8,8.2
0.103989,479.0,76.2,1165.0,62.0,2626.7,130.7,475.5,1164.5,2632.8,128.5,62.6,7.8
0.105989,475.4,89.7,1179.4,67.0,2631.6,133.0,469.9,1174.7,2639.1,129,62.4,7.9
0.107989,470.0,97.6,1191.8,65.9,2643.9,129.6,463.7,1185.2,2648.9,129.4,62.3,8.8
0.109989,463.0,101.1,1203.3,64.6,2663.1,130.0,457.2,1195.7,2661.3,129.9,62.1,10
0.111989,455.9,106.0,1215.0,66.2,2683.8,133.3,450.7,1205.8,2675.6,130.3,62,11.3
0.113989,449.4,109.1,1225.0,67.4,2699.2,131.5,444.4,1215.1,2690.4,130.7,61.9,12.3
0.115989,443.8,106.3,1230.6,65.2,2709.3,122.2,438.7,1223.4,2704.6,131.1,61.7,12.7
0.117989,437.5,102.9,1231.6,61.2,2717.0,109.8,433.9,1230.2,2717.1,131.4,61.4,12.7
0.119989,429.0,104.5,1229.9,58.1,2723.5,98.8,430.3,1235.2,2726.9,131.8,61.1,12.4
0.121989,419.5,108.3,1227.3,55.2,2728.3,91.1,428.1,1238.3,2733.1,132.1,60.6,12.1
0.123989,411.5,110.2,1225.4,52.5,2731.9,86.1,427.3,1239.4,2735.2,132.4,60.1,11.7
