time,f1,b1,f2,b2,f3,b3,f1p,f2p,f3p,f0,intensity,harmonicity
0.025011,601.7,174.1,1709.7,157.3,3100.3,389.5,631.9,1722.9,3169.6,100.8,57.4,0.2
0.027011,607.7,167.7,1713.4,149.3,3121.5,364.7,632.4,1722.5,3169.5,101,58.1,0.2
0.029011,618.5,175.6,1719.0,154.8,3152.5,338.2,633.2,1721.7,3169.5,101.1,58.5,1.4
0.031011,633.4,181.9,1723.9,164.4,3176.2,309.8,634.4,1720.6,3169.5,101.3,58.9,3.1
0.033011,644.2,173.2,1724.9,159.3,3184.4,288.0,636.1,1719.4,3169.7,101.6,59.2,4.9
0.035011,648.9,157.8,1723.5,142.9,3186.1,271.7,638.3,1717.9,3170.3,101.9,59.4,6.1
0.037011,650.2,148.3,1722.0,128.1,3187.9,263.9,641,1716.3,3171.5,102.2,59.5,6.8
0.039011,651.6,156.2,1720.8,130.1,3195.1,275.4,644.3,1714.7,3173.2,102.7,59.6,7.4
0.041011,656.4,179.2,1719.5,161.2,3208.9,296.4,648.4,1712.9,3175.8,103.2,59.7,7.8
0.043011,664.4,186.6,1717.4,195.2,3218.4,301.6,653.1,1711.2,3179.3,103.8,59.9,8
0.045011,670.3,173.1,1715.1,199.3,3220.5,290.9,658.5,1709.4,3183.8,104.5,60.1,8.1
0.047011,675.2,158.0,1712.7,186.6,3219.0,275.2,664.7,1707.7,3189.3,105.3,60.3,8
0.049011,683.5,151.7,1708.3,172.3,3214.4,266.7,671.5,1705.9,3195.8,106.3,60.5,7.7
0.051011,696.1,152.3,1701.0,166.7,3206.0,279.6,679,1704.1,3203.3,107.3,60.7,7.2
0.053011,704.3,152.5,1696.6,169.0,3197.3,296.2,687,1702.2,3211.7,108.6,60.9,6.9
0.055011,707.4,147.0,1694.7,166.9,3195.5,303.7,695.4,1700.1,3220.7,109.9,61.1,6.7
0.057011,708.0,141.4,1691.9,162.1,3203.0,314.0,704.1,1697.8,3230.3,111.5,61.2,6.9
0.059011,706.9,142.5,1686.4,165.1,3219.4,326.8,712.8,1695.1,3240,113.2,61.4,7.2
0.061011,707.3,147.1,1677.6,178.1,3240.3,338.4,721.6,1692,3249.8,115.1,61.5,7.6
0.063011,712.9,145.5,1668.8,190.8,3259.2,352.0,730.1,1688.3,3259.2,117.3,61.6,8.1
0.065011,722.3,138.2,1667.0,196.5,3270.9,373.0,738.2,1684,3268,119.5,61.7,8.5
0.067011,732.8,132.4,1674.5,200.7,3274.0,397.4,745.8,1678.9,3275.9,122,61.7,8.9
0.069011,743.2,132.4,1685.4,208.4,3272.5,408.3,752.6,1673.1,3282.6,124.7,61.7,9.3
0.071011,751.7,135.6,1689.5,219.0,3273.4,400.5,758.6,1666.4,3288,127.5,61.7,9.7
0.073011,757.0,136.3,1681.7,232.4,3278.5,386.2,763.7,1658.7,3291.9,130.6,61.7,10.2
0.075011,760.1,133.7,1667.9,249.5,3284.9,381.3,767.8,1650.2,3294.1,133.7,61.7,10.9
0.077011,763.5,132.1,1653.2,272.5,3291.9,395.5,771,1640.9,3294.8,137,61.6,11.7
0.079011,767.9,133.1,1638.1,296.0,3298.3,430.1,773.1,1630.7,3293.7,140.4,61.6,12.6
0.081011,772.3,135.2,1621.2,311.5,3300.8,471.4,774.3,1619.8,3291.2,143.9,61.6,13.6
0.083011,775.5,136.9,1603.4,320.2,3298.1,499.9,774.8,1608.4,3287.4,147.5,61.6,14.7
0.085011,777.1,138.7,1587.7,329.1,3292.6,505.2,774.5,1596.4,3282.4,151.1,61.6,16.1
0.087011,777.5,141.7,1575.2,341.4,3285.7,490.9,773.7,1584.2,3276.6,154.7,61.6,17.7
0.089011,777.9,144.8,1563.6,349.7,3273.9,474.7,772.6,1571.9,3270.4,158.3,61.7,19.7
0.091011,778.9,145.6,1551.6,346.2,3258.0,475.7,771.2,1559.7,3264,161.8,61.7,21.8
0.093011,779.8,145.7,1539.6,338.3,3242.6,487.2,769.9,1547.7,3257.8,165.3,61.7,23.7
0.095011,779.8,146.3,1529.5,334.3,3233.9,497.0,768.8,1536.2,3252.2,168.7,61.7,25.2
0.097011,779.0,147.8,1521.6,335.4,3235.7,497.3,768,1525.3,3247.4,171.9,61.7,26.4
0.099011,777.8,149.1,1514.2,337.0,3247.1,486.7,767.7,1515.1,3243.8,175.1,61.7,27.3
0.101011,777.0,149.3,1506.4,332.7,3261.9,474.4,767.9,1505.8,3241.5,178,61.7,28
0.103011,777.1,148.3,1498.6,320.7,3274.6,473.0,768.7,1497.5,3240.6,180.8,61.7,28.5
0.105011,777.8,147.0,1492.4,308.2,3280.0,485.8,770.1,1490,3241.2,183.4,61.7,28.7
0.107011,778.4,146.3,1487.4,301.6,3276.1,505.8,772,1483.6,3243.2,185.8,61.7,28.6
0.109011,778.3,146.8,1482.6,303.1,3264.5,522.7,774.4,1478.1,3246.5,188,61.7,28
0.111011,777.3,149.0,1477.0,310.8,3250.7,529.3,776.9,1473.4,3250.8,190,61.7,27.3
0.113011,775.6,152.2,1471.1,320.0,3243.0,524.4,779.6,1469.4,3255.9,191.8,61.7,26.6
0.115011,773.8,155.5,1466.7,326.6,3245.9,512.9,782.1,1466,3261.3,193.3,61.7,26.2
0.117011,772.1,157.9,1464.4,327.8,3255.3,502.3,784.1,1463,3266.6,194.8,61.6,26
0.119011,770.7,159.1,1463.0,323.9,3261.1,490.1,785.4,1460.2,3271.4,196,61.6,26.1
0.121011,769.5,159.0,1460.5,318.2,3256.7,469.9,785.8,1457.3,3275.1,197,61.6,26.1
0.123011,767.9,158.7,1456.1,314.2,3247.2,442.2,784.9,1454.2,3277.4,197.9,61.6,26.2
0.125011,765.9,159.1,1450.0,312.3,3239.7,418.7,782.5,1450.7,3277.7,198.7,61.5,26.3
0.127011,763.5,160.0,1443.9,309.3,3236.1,408.6,778.5,1446.6,3275.6,199.3,61.5,26.4
0.129011,760.6,161.3,1439.1,305.2,3237.2,409.6,772.5,1441.8,3270.9,199.7,61.4,26.6
0.131011,756.5,163.4,1435.4,301.9,3242.4,416.0,764.7,1436.1,3263.2,200.1,61.4,26.8
0.133011,750.6,166.4,1431.1,298.4,3247.2,427.6,754.9,1429.4,3252.6,200.4,61.3,26.7
0.135011,743.8,169.5,1425.3,291.9,3245.1,447.2,743.2,1421.9,3239,200.6,61.2,26.1
0.137011,735.4,173.2,1417.5,284.2,3236.7,467.2,729.7,1413.4,3222.4,200.7,61,24.9
0.139011,724.4,177.7,1407.7,279.1,3229.0,471.6,714.6,1404.1,3203.2,200.7,60.8,23.4
0.141011,710.7,181.2,1396.2,275.7,3222.6,462.5,698.1,1394,3181.8,200.7,60.6,21.5
0.143011,694.9,182.2,1382.8,272.5,3210.8,458.5,680.7,1383.4,3158.4,200.6,60.2,19.4
0.145011,678.0,180.5,1367.1,268.8,3185.7,473.4,662.6,1372.5,3133.9,200.5,59.8,17.2
0.147011,661.3,176.3,1350.5,261.9,3143.2,501.6,644.3,1361.5,3108.7,200.4,59.2,18
0.149011,646.3,171.4,1335.6,248.8,3090.1,520.6,626.2,1350.6,3083.5,200.2,58.4,21.5
0.151011,635.3,171.6,1325.8,233.6,3053.3,519.0,608.9,1340.2,3059.1,200.1,57.6,23.4
0.153011,627.3,184.7,1320.6,220.5,3040.4,508.2,592.7,1330.4,3036.2,199.9,56.7,19.2
0.155011,623.3,218.4,1319.5,209.5,3042.5,492.6,578.2,1321.7,3015.5,199.7,55.6,4.3
0.157011,627.3,271.3,1322.0,197.6,3046.0,475.2,565.7,1314.1,2997.6,199.5,54.5,-27.6
0.159011,638.0,326.6,1326.5,185.8,3041.7,466.0,555.6,1308,2983,0,53.2,-73.5
0.161011,630.6,404.2,1330.0,189.0,3022.2,491.8,548.1,1303.5,2972.3,0,51.8,-123.8
0.163011,457.2,633.9,1316.6,242.4,2959.1,621.9,543.6,1300.7,2965.7,0,50.1,-169.2
0.165011,274.1,195.0,1272.1,272.0,2692.5,769.9,542.1,1299.8,2963.4,0,48.1,-200
