time,f1,b1,f2,b2,f3,b3,f1p,f2p,f3p,f0,intensity,harmonicity
0.026000,402.7,96.2,1091.9,145.3,3056.6,109.9,393.6,1109.2,2993.6,186,59.1,15.2
0.028000,402.0,95.8,1097.1,133.4,3039.0,113.9,393.7,1109.2,2993.2,186,59.1,17.3
0.030000,401.5,94.1,1100.8,121.6,3024.3,121.9,393.8,1109.1,2992.5,185.9,59.1,19.9
0.032000,401.0,91.5,1103.2,109.8,3010.4,140.2,394.1,1108.9,2991.6,185.9,59.1,22.6
0.034000,400.6,89.1,1104.3,100.2,2998.9,168.5,394.4,1108.8,2990.4,185.9,59.2,24.9
0.036000,400.3,88.2,1104.4,94.4,2992.5,200.9,394.8,1108.6,2989,185.8,59.2,26.4
0.038000,400.0,88.0,1103.8,92.1,2992.4,230.5,395.2,1108.3,2987.4,185.8,59.2,27.5
0.040000,399.5,86.8,1102.4,91.9,2995.0,253.5,395.7,1108.1,2985.5,185.8,59.3,28.2
0.042000,398.9,84.0,1100.5,91.9,2995.6,266.6,396.2,1107.8,2983.4,185.8,59.4,28.6
0.044000,398.2,79.7,1098.8,90.6,2993.3,270.5,396.7,1107.5,2981.1,185.8,59.4,29
0.046000,397.6,75.7,1098.8,87.5,2990.3,269.2,397.3,1107.2,2978.7,185.8,59.5,29.2
0.048000,397.2,73.2,1100.5,83.7,2986.6,266.8,397.9,1106.9,2976,185.8,59.6,29.3
0.050000,397.1,72.6,1103.1,80.7,2980.9,262.9,398.5,1106.6,2973.3,185.8,59.7,29.1
0.052000,397.2,73.8,1105.6,79.4,2973.3,257.1,399.1,1106.3,2970.3,185.8,59.8,28.9
0.054000,397.5,75.7,1107.7,79.8,2965.4,251.7,399.7,1106,2967.3,185.8,59.9,28.8
0.056000,397.9,77.6,1109.5,82.0,2956.9,248.7,400.3,1105.8,2964.2,185.8,59.9,28.8
0.058000,398.4,79.2,1111.1,85.5,2947.9,249.6,400.9,1105.6,2961,185.8,60,28.9
0.060000,399.0,80.5,1112.9,89.1,2938.3,254.6,401.4,1105.4,2957.7,185.9,60.1,29
0.062000,399.5,81.7,1114.9,91.9,2926.9,261.3,401.9,1105.2,2954.5,185.9,60.1,29.2
0.064000,400.1,82.8,1116.5,93.5,2914.2,263.7,402.4,1105.1,2951.2,186,60.2,29.5
0.066000,400.4,82.9,1117.5,93.4,2902.6,257.7,402.8,1105,2947.9,186,60.2,29.7
0.068000,400.4,82.0,1117.7,91.6,2895.2,246.5,403.1,1105,2944.6,186,60.3,30.1
0.070000,400.1,80.5,1117.5,88.7,2891.9,236.8,403.4,1105.1,2941.4,186.1,60.3,30.5
0.072000,399.7,78.7,1117.3,84.9,2891.0,231.3,403.6,1105.2,2938.3,186.1,60.3,30.9
0.074000,399.2,76.6,1117.1,80.3,2891.9,229.1,403.7,1105.3,2935.2,186.2,60.4,31.1
0.076000,398.7,74.1,1116.8,74.9,2895.0,228.0,403.7,1105.6,2932.3,186.2,60.4,31.1
0.078000,398.2,72.0,1116.2,69.3,2901.7,224.5,403.7,1105.9,2929.5,186.3,60.4,30.8
0.080000,397.7,71.3,1115.6,64.7,2909.8,214.7,403.6,1106.2,2926.8,186.4,60.5,30.3
0.082000,397.3,71.7,1115.2,60.9,2914.4,199.6,403.4,1106.7,2924.3,186.4,60.5,29.8
0.084000,396.9,72.1,1114.8,57.2,2913.6,184.7,403.1,1107.1,2922,186.5,60.6,29.3
0.086000,396.4,71.2,1114.2,52.8,2909.9,172.9,402.7,1107.7,2919.8,186.6,60.6,29
0.088000,395.9,68.7,1113.4,47.8,2906.9,164.3,402.3,1108.3,2917.9,186.7,60.6,28.8
0.090000,395.4,65.5,1112.3,43.0,2906.6,159.9,401.7,1109,2916.2,186.8,60.7,28.6
0.092000,395.0,63.5,1111.3,39.7,2910.8,163.4,401.2,1109.7,2914.7,186.9,60.7,28.4
0.094000,394.7,63.4,1110.4,38.3,2919.5,175.3,400.5,1110.5,2913.4,187.1,60.7,28.3
0.096000,394.4,64.1,1109.6,38.0,2928.9,189.7,399.8,1111.3,2912.4,187.2,60.7,28.4
0.098000,394.1,64.0,1109.0,37.7,2932.7,197.5,399.1,1112.1,2911.7,187.4,60.7,28.8
0.100000,393.7,62.7,1108.9,37.2,2930.0,196.6,398.3,1113,2911.2,187.6,60.7,29.3
0.102000,393.4,60.9,1109.3,36.5,2925.2,190.9,397.5,1113.9,2910.9,187.8,60.7,29.7
0.104000,393.2,58.6,1109.9,35.3,2921.4,184.5,396.7,1114.8,2910.9,188,60.7,29.8
0.106000,393.1,55.7,1110.4,33.4,2918.1,177.4,395.9,1115.7,2911.1,188.3,60.7,29.3
0.108000,393.0,51.9,1110.9,30.8,2916.1,169.2,395,1116.6,2911.7,188.6,60.7,28.3
0.110000,393.0,48.2,1111.7,28.4,2918.2,162.0,394.2,1117.4,2912.4,188.9,60.7,27
0.112000,393.1,45.8,1112.7,26.9,2924.3,159.5,393.5,1118.2,2913.4,189.2,60.7,25.6
0.114000,393.3,44.6,1113.8,26.3,2931.6,161.8,392.7,1119,2914.7,189.5,60.7,24.4
0.116000,393.5,43.7,1115.2,26.1,2937.0,166.8,392.1,1119.8,2916.2,189.9,60.7,23.6
0.118000,393.8,42.8,1116.7,26.1,2941.6,170.2,391.5,1120.4,2917.9,190.3,60.7,23.1
0.120000,394.1,42.0,1118.4,26.3,2948.7,169.1,390.9,1121,2919.8,190.8,60.7,22.8
0.122000,394.6,41.8,1120.2,27.0,2958.8,165.3,390.5,1121.5,2921.9,191.2,60.7,22.5
0.124000,395.1,41.9,1122.4,28.2,2969.9,162.7,390.1,1122,2924.2,191.7,60.7,22.3
0.126000,395.7,41.9,1124.6,29.3,2978.0,165.3,389.9,1122.3,2926.7,192.3,60.6,22.2
0.128000,396.3,41.2,1126.2,30.3,2980.9,174.5,389.7,1122.5,2929.4,192.8,60.6,22.1
0.130000,396.8,40.1,1127.2,31.1,2977.9,189.5,389.7,1122.6,2932.2,193.4,60.6,22
0.132000,397.4,38.7,1127.6,32.0,2969.5,207.8,389.8,1122.6,2935.1,194,60.5,22
0.134000,397.9,37.4,1127.5,33.1,2957.3,222.8,390.1,1122.5,2938.2,194.6,60.5,21.9
0.136000,398.5,36.2,1127.2,34.8,2942.0,227.0,390.4,1122.2,2941.4,195.3,60.4,21.6
0.138000,399.2,34.9,1126.7,37.3,2928.9,216.7,391,1121.8,2944.6,195.9,60.4,21
0.140000,399.9,33.9,1125.9,40.7,2923.4,197.7,391.6,1121.3,2948,196.6,60.4,20.4
0.142000,400.7,33.5,1125.0,45.6,2927.4,178.7,392.4,1120.6,2951.4,197.3,60.3,19.8
0.144000,401.6,33.4,1123.5,51.7,2937.3,165.8,393.4,1119.8,2954.8,198.1,60.3,19.3
0.146000,402.4,33.0,1121.1,57.7,2947.8,161.1,394.5,1118.9,2958.3,198.8,60.2,19
0.148000,403.2,31.9,1116.9,63.3,2956.9,163.9,395.7,1117.8,2961.8,199.6,60.2,18.7
0.150000,404.0,30.5,1110.8,67.9,2963.1,172.2,397.1,1116.6,2965.3,200.4,60.1,18.5
0.152000,404.9,28.8,1103.4,71.2,2967.1,181.0,398.6,1115.4,2968.7,201.2,60.1,18.4
0.154000,405.8,27.0,1095.5,73.1,2969.9,185.5,400.2,1114,2972.1,201.9,60,18.4
0.156000,406.7,25.5,1088.6,73.7,2972.5,186.3,401.9,1112.5,2975.5,202.7,60,18.4
0.158000,407.8,24.9,1084.2,74.6,2975.8,189.1,403.7,1111,2978.8,203.6,59.9,18.5
0.160000,409.2,25.5,1082.9,77.3,2978.6,200.7,405.6,1109.4,2982.1,204.4,59.8,18.7
0.162000,410.7,26.8,1084.1,80.8,2977.5,219.6,407.5,1107.7,2985.3,205.2,59.7,18.9
0.164000,412.1,28.0,1085.6,82.6,2969.8,229.3,409.5,1106,2988.4,206,59.6,19.1
0.166000,413.4,28.2,1085.9,80.9,2957.8,212.3,411.6,1104.3,2991.4,206.8,59.5,19.2
0.168000,414.6,27.4,1085.3,76.3,2949.0,179.0,413.7,1102.6,2994.2,207.6,59.4,19.3
0.170000,415.7,26.7,1085.3,71.5,2947.4,151.2,415.8,1101,2997,208.4,59.3,19.4
0.172000,417.0,26.9,1086.8,68.5,2951.9,133.7,417.9,1099.4,2999.7,209.2,59.2,19.5
0.174000,418.3,28.3,1089.6,68.1,2959.8,124.8,420,1097.9,3002.2,209.9,59.1,19.7
0.176000,419.5,30.1,1092.9,68.8,2967.4,119.7,422.1,1096.5,3004.6,210.7,58.9,20.1
0.178000,420.5,31.3,1095.6,68.4,2972.9,116.3,424.1,1095.2,3006.9,211.4,58.8,20.6
0.180000,421.2,31.3,1097.6,65.5,2976.7,114.3,426.1,1094,3009.1,212.2,58.7,21.2
0.182000,421.7,30.8,1099.4,61.1,2980.8,113.4,427.9,1093.1,3011.1,212.9,58.6,21.9
0.184000,422.3,30.6,1101.8,57.2,2987.7,113.4,429.7,1092.4,3013.1,213.6,58.4,22.4
0.186000,423.1,31.6,1105.0,55.4,2997.3,114.0,431.4,1091.9,3014.9,214.3,58.3,22.8
0.188000,424.0,33.7,1108.5,55.9,3007.4,115.1,432.9,1091.6,3016.5,215,58.1,23
0.190000,424.9,36.4,1111.8,57.6,3016.7,116.5,434.3,1091.7,3018.1,215.6,57.9,23.2
0.192000,425.7,38.8,1114.3,58.9,3024.5,119.2,435.6,1092.1,3019.6,216.3,57.8,23.3
0.194000,426.3,41.0,1116.4,59.5,3031.6,125.8,436.7,1092.8,3020.9,216.9,57.6,23.5
0.196000,426.8,43.4,1118.7,60.0,3037.2,139.7,437.6,1094,3022.2,217.5,57.4,23.8
0.198000,427.3,46.9,1122.0,61.8,3040.5,162.1,438.4,1095.5,3023.4,218.1,57.2,24.2
0.200000,427.8,51.5,1126.0,65.2,3042.0,190.3,439,1097.5,3024.5,218.7,57,24.7
0.202000,428.3,56.4,1129.8,69.4,3041.7,220.0,439.3,1099.9,3025.5,219.2,56.8,25.1
0.204000,428.7,60.6,1132.9,73.4,3040.1,249.0,439.5,1102.8,3026.5,219.8,56.6,25.4
0.206000,428.9,64.5,1135.9,77.4,3039.9,276.3,439.5,1106.2,3027.4,220.3,56.4,25.5
0.208000,429.1,68.6,1139.2,81.1,3044.9,294.4,439.4,1110.2,3028.3,220.8,56.2,25.4
0.210000,429.2,72.8,1142.7,84.1,3057.0,298.9,439,1114.6,3029.2,221.3,56,25.1
0.212000,429.1,76.5,1146.1,86.2,3073.2,289.8,438.4,1119.7,3030,221.8,55.9,24.9
0.214000,428.7,79.3,1149.0,88.1,3087.1,272.3,437.7,1125.3,3030.9,222.3,55.7,24.7
0.216000,428.2,81.1,1151.5,90.5,3094.9,257.2,436.8,1131.6,3031.7,222.8,55.5,24.6
0.218000,427.7,82.8,1154.3,94.2,3098.4,253.9,435.7,1138.4,3032.6,223.2,55.3,24.7
0.220000,427.4,85.0,1158.0,98.5,3099.2,273.9,434.5,1145.9,3033.5,223.7,55.1,24.8
0.222000,427.3,88.1,1162.4,102.6,3097.6,325.4,433.1,1154,3034.4,224.1,54.9,24.9
0.224000,427.1,92.0,1167.0,106.8,3091.7,399.9,431.6,1162.7,3035.4,224.6,54.7,25.1
0.226000,426.9,96.4,1171.3,112.2,3082.0,444.5,429.9,1172.1,3036.4,225,54.6,25.3
0.228000,426.6,101.5,1175.7,119.7,3072.9,413.2,428.2,1182.1,3037.5,225.4,54.4,25.6
0.230000,426.4,108.0,1181.6,130.7,3061.6,344.2,426.3,1192.7,3038.7,225.9,54.2,26
0.232000,426.4,115.4,1189.5,144.7,3049.0,290.3,424.4,1204,3039.9,226.3,54,26.4
0.234000,426.6,123.2,1199.7,161.0,3038.0,262.5,422.5,1215.8,3041.3,226.7,53.8,26.6
0.236000,427.0,130.1,1210.7,178.0,3029.8,256.3,420.5,1228.3,3042.7,227.1,53.6,26.5
0.238000,427.1,135.3,1220.7,193.8,3022.7,262.9,418.4,1241.4,3044.2,227.5,53.4,26.1
0.240000,427.1,139.7,1229.4,208.8,3015.0,269.6,416.4,1255.1,3045.9,227.9,53.3,25.5
0.242000,426.8,144.2,1238.2,226.2,3006.7,271.8,414.4,1269.4,3047.6,228.3,53.1,24.9
0.244000,426.4,147.8,1247.2,246.9,3000.1,274.8,412.4,1284.2,3049.5,228.7,53,24.3
0.246000,426.1,151.1,1257.3,273.1,2996.8,281.2,410.5,1299.5,3051.5,229.1,52.9,24
0.248000,426.4,155.2,1269.1,304.4,2998.3,285.6,408.6,1315.4,3053.6,229.4,52.8,23.7
0.250000,426.9,159.4,1280.6,334.2,3004.6,280.9,406.8,1331.7,3055.8,229.8,52.7,23.5
0.252000,427.3,164.5,1291.3,362.0,3014.7,263.9,405.2,1348.4,3058.1,230.1,52.6,23.4
0.254000,427.4,171.6,1302.1,389.8,3025.1,240.3,403.6,1365.6,3060.6,230.4,52.5,23.3
0.256000,427.2,180.2,1315.5,421.9,3033.2,221.3,402.2,1383.2,3063.1,230.7,52.4,23.2
0.258000,426.9,187.6,1333.7,455.1,3038.7,215.1,400.9,1401.1,3065.8,231,52.3,23.2
0.260000,426.6,192.1,1358.0,483.4,3042.9,222.5,399.7,1419.3,3068.6,231.3,52.1,23.2
0.262000,426.5,195.5,1386.8,503.6,3046.5,236.7,398.7,1437.8,3071.4,231.5,52,23.2
0.264000,426.3,200.4,1419.5,518.4,3050.7,251.6,397.9,1456.5,3074.4,231.7,51.9,23.4
0.266000,425.9,206.9,1452.0,527.1,3055.0,260.6,397.3,1475.4,3077.5,231.9,51.8,23.7
0.268000,425.2,213.7,1484.5,529.2,3058.7,260.9,396.8,1494.5,3080.6,232.1,51.6,24.3
0.270000,424.2,218.2,1517.0,524.7,3060.4,258.5,396.5,1513.6,3083.8,232.2,51.5,25
0.272000,422.4,218.9,1546.1,518.7,3059.4,265.1,396.4,1532.8,3087.1,232.3,51.4,25.7
0.274000,419.5,217.8,1567.4,520.6,3057.0,289.3,396.5,1552,3090.5,232.4,51.3,26.1
0.276000,415.8,218.7,1585.4,536.8,3055.3,334.0,396.7,1571.2,3093.8,232.4,51.1,26
0.278000,412.4,224.3,1607.7,565.6,3057.8,389.9,397.2,1590.3,3097.3,232.4,51,25.5
0.280000,409.3,230.6,1640.3,592.7,3067.9,453.1,397.8,1609.2,3100.7,232.4,50.8,24.8
0.282000,405.4,230.6,1680.2,599.0,3087.3,527.3,398.6,1628,3104.2,232.4,50.7,23.9
0.284000,400.0,224.4,1720.9,577.5,3113.1,593.8,399.5,1646.6,3107.6,232.3,50.5,23.2
0.286000,394.0,217.0,1754.6,537.2,3136.2,615.6,400.6,1664.8,3111.1,232.2,50.3,22.8
0.288000,387.5,210.2,1780.0,479.7,3152.5,582.2,401.8,1682.8,3114.5,232,50,22.6
0.290000,381.0,202.3,1797.2,395.7,3162.4,506.2,403.1,1700.4,3117.9,231.8,49.8,22.5
0.292000,374.6,190.7,1809.3,288.2,3164.6,411.8,404.5,1717.5,3121.3,231.6,49.5,22.4
0.294000,367.9,176.5,1817.8,194.3,3155.3,325.1,406.1,1734.2,3124.6,231.4,49.2,22.2
0.296000,360.3,162.2,1823.7,136.0,3138.3,264.0,407.7,1750.4,3127.8,231.2,48.8,22.8
0.298000,352.0,148.7,1828.3,110.5,3121.3,237.5,409.3,1766.1,3130.9,230.9,48.4,28.1
0.300000,342.7,134.7,1832.8,107.2,3108.5,248.7,411,1781.2,3134,230.6,47.9,34.2
0.302000,333.7,122.9,1837.5,121.5,3105.1,305.6,412.7,1795.6,3136.9,230.4,47.2,36
0.304000,325.4,117.1,1844.2,147.2,3114.2,404.4,414.5,1809.4,3139.8,230.1,46.4,28.2
0.306000,317.8,118.5,1855.8,172.8,3153.6,521.2,416.2,1822.4,3142.5,229.8,45.4,5
0.308000,310.8,124.5,1869.4,178.0,3256.2,618.4,417.9,1834.8,3145.1,229.4,44.2,-37.6
0.310000,302.8,131.2,1877.3,156.8,3421.1,622.0,419.5,1846.3,3147.5,229.1,42.8,-90.6
0.312000,293.7,135.7,1877.8,132.2,3540.3,526.1,421.1,1857.1,3149.7,228.8,41.2,-143.5
0.314000,285.0,148.1,1879.9,129.3,3577.2,462.6,422.6,1867,3151.8,228.5,39.3,-186
0.316000,280.3,193.7,1890.2,175.2,3562.3,488.6,424,1876.1,3153.8,228.2,37.1,-208.9
0.318000,278.6,315.5,1913.9,336.2,3485.4,649.8,425.3,1884.2,3155.5,227.9,34.7,-216.1
0.320000,259.1,559.9,1937.4,717.6,3256.9,928.6,426.5,1891.5,3157.1,227.6,32,-213.7
0.322000,190.2,934.9,1777.5,1279.9,2898.2,775.0,427.6,1897.8,3158.4,0,29.1,-206.9
0.324000,340.8,1145.5,1585.7,1377.2,2803.6,575.7,428.5,1903.2,3159.6,0,26.1,-201
0.326000,633.1,935.1,1637.8,1512.8,2768.8,596.9,429.2,1907.6,3160.5,0,23.2,-200
0.328000,739.7,672.2,1849.5,1333.5,2761.7,762.9,429.8,1911.1,3161.3,0,21,-200
0.330000,760.0,575.7,1941.3,887.2,2831.0,998.2,430.3,1913.6,3161.8,0,19.8,-200
0.332000,759.8,602.4,1946.4,616.9,2976.9,1188.0,430.5,1915.1,3162.1,0,18.8,-200
0.334000,736.9,802.9,1944.2,518.4,3326.5,1261.9,430.6,1915.6,3162.3,0,18.2,-200
