time,f1,b1,f2,b2,f3,b3,f1p,f2p,f3p,f0,intensity,harmonicity
0.025011,326.2,224.7,1360.8,280.4,2966.0,962.2,329,1263.3,2822.3,224.1,40,13.2
0.027011,326.3,161.1,1347.9,399.7,2917.0,736.1,332.5,1264.6,2821.5,223.5,42.7,27.9
0.029011,342.8,145.3,1305.0,549.8,2871.3,637.5,338.2,1266.6,2820.2,222.8,45,31.2
0.031011,362.5,137.3,1263.8,592.0,2842.6,593.2,345.8,1269.3,2818.4,222.1,47,27.8
0.033011,383.8,129.3,1262.9,524.2,2825.1,578.2,355.1,1272.3,2816.1,221.3,48.7,22.2
0.035011,402.6,117.2,1271.7,432.6,2800.9,589.3,365.7,1275.6,2813.2,220.6,50,19.1
0.037011,415.1,102.0,1274.5,344.7,2762.3,601.5,377.2,1278.7,2809.7,219.8,51.1,17.9
0.039011,419.0,88.0,1269.9,276.1,2743.9,600.4,389.1,1281.3,2805.7,218.9,51.9,15.7
0.041011,417.3,75.3,1261.8,224.3,2756.5,586.0,400.9,1283.3,2801.1,218.1,52.4,13.1
0.043011,414.3,64.9,1254.2,188.3,2766.6,554.9,412.3,1284.3,2795.9,217.3,52.8,10.9
0.045011,412.1,58.2,1249.7,168.4,2755.3,509.8,422.7,1284,2790.2,216.4,53.1,10
0.047011,411.1,54.9,1247.3,161.4,2733.1,457.3,431.7,1282.3,2783.9,215.6,53.3,10.6
0.049011,410.6,53.3,1243.6,160.0,2717.2,414.6,439.1,1279,2777.2,214.7,53.4,12.3
0.051011,409.5,52.4,1235.5,155.8,2714.0,395.5,444.5,1273.9,2770,213.8,53.4,14.5
0.053011,407.9,52.1,1225.1,146.5,2718.7,399.4,447.8,1267,2762.5,213,53.4,16.8
0.055011,406.3,52.7,1216.2,137.4,2724.4,419.4,448.7,1258.4,2754.6,212.1,53.4,18.5
0.057011,405.0,54.0,1210.0,133.2,2726.9,446.8,447.5,1248.1,2746.6,211.3,53.3,19.6
0.059011,403.7,55.8,1205.5,134.1,2724.3,467.7,444,1236.5,2738.5,210.5,53.3,20.6
0.061011,402.4,57.7,1201.5,138.0,2718.1,475.0,438.5,1223.6,2730.5,209.7,53.3,21.4
0.063011,401.2,59.9,1197.1,142.9,2710.1,481.3,431.3,1209.8,2722.6,208.9,53.3,22
0.065011,400.3,61.9,1192.3,148.3,2699.5,504.4,422.6,1195.6,2715.1,208.1,53.3,22.4
0.067011,399.7,63.4,1186.2,154.0,2688.9,556.9,412.9,1181.2,2707.9,207.4,53.3,22.6
0.069011,399.1,63.8,1178.2,158.1,2690.4,643.9,402.6,1167,2701.4,206.6,53.4,22.6
0.071011,398.5,63.5,1169.7,157.7,2719.9,736.1,392.2,1153.6,2695.5,205.9,53.4,22.4
0.073011,398.2,63.5,1163.0,152.7,2761.9,745.5,382.1,1141.4,2690.3,205.2,53.5,22.2
0.075011,398.1,63.9,1158.8,145.4,2769.0,663.8,372.8,1130.6,2686,204.5,53.6,22.1
0.077011,398.1,64.7,1157.1,137.7,2748.5,565.8,364.7,1121.7,2682.6,203.8,53.6,21.9
0.079011,398.4,66.7,1158.0,129.1,2728.0,481.4,358.2,1114.8,2680.2,203.2,53.7,21.6
0.081011,399.0,69.8,1160.1,120.2,2719.7,420.3,353.6,1110.4,2678.8,202.6,53.7,21.4
0.083011,399.5,73.4,1161.4,113.3,2723.4,385.6,351.2,1108.3,2678.3,202,53.8,21.3
0.085011,400.2,77.6,1162.1,110.2,2727.2,371.1,351,1108.7,2678.7,201.4,53.8,21.4
0.087011,401.2,82.4,1162.0,110.0,2723.4,366.8,353.2,1111.5,2679.9,200.8,53.8,22
0.089011,402.2,86.2,1159.4,112.3,2712.5,368.3,357.6,1116.6,2681.9,200.2,53.8,22.9
0.091011,402.6,88.1,1154.3,115.6,2699.0,369.8,364.2,1123.6,2684.5,199.7,53.8,23.9
0.093011,402.8,88.7,1149.2,116.6,2686.9,368.1,372.6,1132.3,2687.6,199.2,53.9,24.7
0.095011,403.2,88.8,1146.6,113.6,2677.6,365.1,382.5,1142.3,2690.9,198.7,53.9,25.1
0.097011,403.5,88.6,1146.3,107.5,2670.9,363.5,393.5,1153.1,2694.4,198.2,53.9,24.8
0.099011,403.2,88.2,1146.5,100.6,2664.8,360.7,405.2,1164.2,2697.8,197.7,54,24.2
0.101011,402.1,87.9,1146.3,94.7,2658.7,354.1,416.9,1175,2701,197.2,54,23.3
0.103011,400.5,88.3,1145.3,90.8,2654.4,348.4,428.3,1185.1,2703.6,196.8,54,22.7
0.105011,398.7,89.5,1143.8,89.0,2653.0,348.9,438.7,1193.9,2705.7,196.3,54,22.4
0.107011,396.7,91.3,1142.5,88.7,2653.5,351.2,447.7,1201,2707,195.9,53.9,22.8
0.109011,394.6,93.0,1141.9,89.4,2654.4,346.6,454.7,1206,2707.3,195.5,53.8,23.6
0.111011,392.7,93.9,1142.0,91.4,2655.2,334.2,459.5,1208.4,2706.6,195.1,53.7,24.6
0.113011,391.6,95.2,1142.5,94.8,2656.0,319.5,461.6,1208.2,2704.8,194.7,53.6,25.4
0.115011,391.7,98.2,1142.8,98.9,2658.4,307.6,460.8,1205.2,2701.8,194.3,53.5,25.8
0.117011,392.6,103.3,1143.1,102.0,2663.7,297.1,457.1,1199.3,2697.5,194,53.4,25.6
0.119011,393.9,110.2,1144.4,102.7,2668.9,282.3,450.5,1190.7,2692.2,193.7,53.3,25.1
0.121011,395.2,118.1,1147.4,100.9,2669.0,266.0,441,1179.6,2685.7,193.3,53.1,24.4
0.123011,396.4,125.5,1150.8,97.0,2664.8,258.7,429.1,1166.4,2678.2,193,53,23.7
0.125011,397.6,131.1,1152.6,91.7,2662.0,265.2,414.9,1151.5,2669.8,192.7,52.9,23.1
0.127011,399.0,135.7,1153.2,84.9,2665.3,280.1,399.1,1135.5,2660.8,192.5,52.7,22.5
0.129011,401.3,141.2,1154.1,77.1,2673.8,291.8,382.1,1119,2651.2,192.2,52.6,22
0.131011,403.6,146.3,1155.8,70.3,2681.7,290.9,364.7,1102.8,2641.3,192,52.5,21.4
0.133011,404.6,148.8,1157.2,64.3,2687.1,280.2,347.4,1087.5,2631.3,191.7,52.4,20.9
0.135011,404.0,146.7,1157.1,58.6,2691.4,267.5,331.1,1074,2621.5,191.5,52.3,20.6
0.137011,402.2,140.4,1155.1,53.3,2695.4,261.9,316.4,1062.9,2612,191.3,52.1,20.4
0.139011,400.0,132.0,1152.3,49.5,2698.3,271.1,304.1,1055,2603.2,191.1,51.9,20.4
0.141011,398.1,124.5,1149.4,47.9,2698.4,300.5,294.8,1050.9,2595.1,190.9,51.7,20.4
0.143011,396.6,119.8,1146.6,48.5,2693.4,350.4,289.1,1051.2,2588.1,190.8,51.5,20.2
0.145011,394.9,118.7,1143.9,51.4,2680.9,415.4,287.4,1056.2,2582.2,190.6,51.2,19.7
0.147011,392.5,120.2,1141.2,56.3,2660.3,491.3,290.2,1066.3,2577.6,190.5,50.9,18.6
0.149011,388.2,124.0,1138.7,62.5,2631.9,575.5,297.6,1081.7,2574.3,190.4,50.6,17.2
0.151011,381.2,130.0,1137.5,69.1,2600.0,666.3,309.7,1102.2,2572.5,190.2,50.3,15.6
0.153011,371.1,137.0,1138.5,76.0,2572.4,771.7,326.6,1127.9,2572.1,190.1,50,14
0.155011,359.7,142.5,1141.4,82.3,2548.4,898.8,347.8,1158.3,2573,190,49.6,12.7
0.157011,349.7,144.4,1144.3,85.6,2507.0,995.9,373.2,1192.9,2575.3,189.9,49.2,11.8
0.159011,342.5,143.7,1146.0,84.6,2462.2,948.6,402.2,1231.2,2578.7,189.8,48.6,11
0.161011,337.0,144.2,1147.2,81.4,2444.0,822.5,434,1272.4,2583.2,189.8,48,10.4
0.163011,330.7,150.7,1149.5,79.5,2439.6,717.0,468.1,1315.6,2588.6,189.7,47.2,9.8
0.165011,320.8,166.0,1154.3,81.7,2438.1,670.0,503.6,1359.8,2594.5,189.6,46.3,9.1
0.167011,304.7,192.1,1163.7,91.4,2432.7,671.1,539.5,1404,2600.9,189.5,45.4,8.4
0.169011,281.7,229.4,1182.8,114.4,2420.1,667.1,574.9,1447.2,2607.5,189.5,44.5,7.5
0.171011,254.6,269.1,1219.3,158.1,2409.5,625.2,608.9,1488.3,2613.9,189.4,43.6,6.8
0.173011,229.6,290.8,1279.7,227.7,2393.7,572.2,640.5,1526.4,2620.1,189.4,42.7,6.3
0.175011,207.8,304.6,1375.7,347.0,2365.7,562.9,668.9,1560.4,2625.8,189.3,41.8,6.4
0.177011,181.8,347.5,1516.7,513.1,2326.3,667.3,693.4,1589.5,2630.7,189.3,40.9,7.3
0.179011,118.6,453.5,1672.0,579.6,2283.0,902.2,713.1,1613,2634.8,189.2,40.1,9.1
0.181011,1742.7,528.9,2268.9,1236.0,3395.7,703.3,727.7,1630.2,2637.7,0,39.7,11
0.183011,1769.4,497.8,2165.3,2060.1,3237.9,821.1,736.5,1640.7,2639.6,0,39.4,12.5
0.185011,1406.4,1765.0,1788.4,492.0,3089.3,666.7,739.5,1644.2,2640.2,0,39.5,13
