time,f1,b1,f2,b2,f3,b3,f1p,f2p,f3p,f0,intensity,harmonicity
0.025000,364.8,142.8,2257.8,117.5,3027.2,202.0,398.8,2279.9,3046.9,244.6,67.6,3.7
0.027000,386.8,148.2,2261.8,96.0,3031.4,152.4,400.7,2284.1,3049.8,244.1,68.4,4
0.029000,403.4,141.6,2268.7,86.5,3043.8,126.7,403.8,2291,3054.4,243.7,69,5.2
0.031000,413.1,131.7,2279.6,87.9,3058.9,119.8,407.9,2300.5,3060.5,243.2,69.4,7
0.033000,420.4,122.5,2299.6,98.0,3073.8,122.2,412.8,2312.3,3067.6,242.7,69.7,9.1
0.035000,427.8,115.6,2330.4,110.9,3084.6,123.7,418.3,2326.1,3075.2,242.2,69.9,11.1
0.037000,436.5,108.8,2370.6,117.9,3094.2,118.9,424.1,2341.8,3082.9,241.6,70,13.3
0.039000,444.3,101.7,2405.1,113.3,3104.2,110.8,429.9,2358.8,3090,241,70.1,16.1
0.041000,450.0,94.3,2426.7,102.1,3114.3,103.2,435.5,2376.7,3096.3,240.4,70.1,18.8
0.043000,452.7,88.6,2434.7,92.6,3120.6,97.1,440.5,2395.3,3101,239.8,70.1,21.1
0.045000,453.1,84.5,2436.6,88.2,3119.8,90.3,444.9,2414,3104,239.1,70.1,22.6
0.047000,451.5,82.2,2437.6,90.9,3111.7,83.3,448.3,2432.4,3105,238.5,70,23
0.049000,448.5,80.7,2440.7,101.2,3100.1,77.9,450.7,2450.1,3103.8,237.8,70,22.5
0.051000,445.0,79.5,2446.9,118.2,3089.9,76.1,452.1,2466.8,3100.4,237.1,69.9,21.6
0.053000,441.7,78.5,2456.6,141.4,3081.1,77.6,452.3,2481.9,3095,236.3,69.9,20.8
0.055000,439.4,77.7,2468.7,165.1,3073.5,81.3,451.6,2495.4,3087.6,235.6,69.8,20.4
0.057000,438.1,77.2,2481.4,182.2,3066.1,85.8,449.9,2506.8,3078.7,234.9,69.8,20.5
0.059000,437.4,76.5,2494.9,191.5,3057.9,91.3,447.5,2516.2,3068.6,234.1,69.7,20.8
0.061000,437.2,75.5,2508.6,194.9,3049.7,97.7,444.5,2523.4,3057.6,233.4,69.7,21.2
0.063000,436.9,74.0,2523.8,196.3,3041.1,105.8,441,2528.5,3046.4,232.6,69.6,21.7
0.065000,436.5,72.5,2536.7,195.8,3033.4,113.7,437.4,2531.5,3035.2,231.8,69.6,22.2
0.067000,435.7,71.1,2543.4,192.1,3025.9,119.3,433.8,2532.6,3024.5,231.1,69.5,22.7
0.069000,434.8,69.9,2540.9,186.5,3018.8,121.1,430.4,2532,3014.7,230.3,69.5,23.3
0.071000,433.7,68.8,2533.1,181.5,3011.9,122.2,427.4,2530,3005.9,229.5,69.5,23.9
0.073000,432.4,67.6,2526.6,180.8,3006.1,126.2,424.8,2526.9,2998.3,228.7,69.4,24.4
0.075000,430.5,66.2,2523.4,184.9,3000.4,133.7,422.8,2522.9,2992.1,227.9,69.5,24.8
0.077000,428.3,64.5,2522.8,189.6,2994.6,139.7,421.4,2518.3,2987.2,227.2,69.5,25.2
0.079000,425.9,62.2,2522.1,191.3,2988.6,140.9,420.6,2513.4,2983.6,226.4,69.5,25.6
0.081000,424.0,59.4,2519.9,190.6,2983.3,139.1,420.4,2508.3,2981,225.6,69.5,25.8
0.083000,422.4,56.2,2516.0,191.2,2978.7,139.2,420.7,2503,2979.3,224.8,69.6,25.9
0.085000,421.3,53.0,2511.3,194.1,2976.0,143.6,421.3,2497.7,2978.1,224.1,69.7,25.8
0.087000,420.8,49.7,2505.4,197.2,2975.9,152.5,422.3,2492.1,2977.3,223.3,69.8,25.3
0.089000,420.8,46.8,2497.9,196.7,2978.4,163.2,423.4,2486.2,2976.6,222.5,69.9,24.4
0.091000,421.1,44.0,2487.0,191.0,2981.7,173.3,424.6,2479.7,2975.7,221.8,70,23.4
0.093000,421.7,41.5,2473.2,182.3,2982.7,179.7,425.6,2472.2,2974.6,221,70.2,22.5
0.095000,422.2,39.2,2456.2,173.1,2978.9,183.0,426.5,2463.5,2972.9,220.2,70.3,21.9
0.097000,422.5,37.0,2438.0,166.0,2970.4,184.1,427,2453,2970.7,219.5,70.5,21.6
0.099000,422.6,35.0,2418.3,160.8,2958.3,180.9,427.2,2440.6,2967.9,218.7,70.6,21.6
0.101000,422.7,33.3,2399.7,156.9,2947.4,170.9,426.9,2425.8,2964.6,218,70.8,21.7
0.103000,422.7,31.9,2380.6,151.9,2940.2,157.6,426.3,2408.3,2960.8,217.3,71,21.8
0.105000,422.8,31.0,2361.3,145.6,2937.2,149.8,425.2,2388.1,2956.8,216.5,71.1,21.7
0.107000,422.6,30.6,2343.3,139.4,2937.7,150.4,423.7,2365.1,2952.5,215.8,71.2,21.3
0.109000,422.2,30.5,2325.9,135.0,2941.4,156.6,421.9,2339.5,2948.2,215.1,71.3,20.8
0.111000,421.7,30.8,2310.3,133.8,2947.5,162.2,419.8,2311.4,2944,214.4,71.4,20.2
0.113000,421.1,31.8,2294.7,135.9,2954.0,163.9,417.5,2281.3,2940.1,213.8,71.4,19.7
0.115000,420.3,33.2,2278.8,142.7,2957.8,163.2,415.1,2249.8,2936.6,213.1,71.4,19.4
0.117000,419.2,34.9,2258.6,156.9,2957.6,162.6,412.6,2217.6,2933.5,212.5,71.4,19.5
0.119000,417.6,36.5,2231.8,175.6,2953.7,160.9,410.2,2185.4,2930.9,211.8,71.3,20
0.121000,415.1,37.8,2195.9,191.1,2947.3,155.1,407.9,2154,2928.8,211.2,71.2,20.5
0.123000,412.3,39.0,2157.9,193.3,2939.3,145.7,405.7,2124.5,2927.2,210.7,71,20.7
0.125000,409.1,40.2,2118.2,182.1,2928.5,134.1,403.8,2097.7,2926,210.1,70.7,20.4
0.127000,405.6,41.2,2081.5,165.3,2917.3,125.3,402.2,2074.5,2925.1,209.6,70.4,19.3
0.129000,401.1,41.8,2046.0,149.8,2907.7,124.1,400.9,2055.5,2924.6,209.1,69.9,17.6
0.131000,395.8,41.7,2016.6,144.4,2904.0,138.1,399.9,2041.5,2924.2,208.6,69.3,15.7
0.133000,389.6,41.0,1992.1,155.3,2909.4,180.8,399.4,2032.9,2924,208.2,68.4,13.8
0.135000,383.3,41.4,1972.8,181.4,2923.5,257.7,399.2,2030,2924,207.7,67.4,12.2
