time,f1,b1,f2,b2,f3,b3,f1p,f2p,f3p,f0,intensity,harmonicity
0.026011,453.5,85.8,1757.2,148.0,2627.3,141.5,466.8,1754.4,2631.9,203.4,59.9,15.3
0.028011,459.7,92.9,1749.2,142.4,2596.0,101.9,466.5,1749.7,2622,203.7,60,16.2
0.030011,465.6,99.2,1738.4,136.9,2577.2,75.8,466,1741.9,2606.2,204.1,60.2,17.3
0.032011,470.0,104.4,1724.6,136.0,2565.8,62.4,465.3,1731.1,2585.4,204.6,60.3,18.4
0.034011,471.1,107.9,1710.7,142.4,2557.4,61.3,464.4,1717.1,2561,205,60.4,19.1
0.036011,469.7,109.3,1696.6,154.8,2546.9,70.6,463.3,1700.1,2534.2,205.5,60.5,19.4
0.038011,467.1,108.7,1680.9,171.1,2530.6,90.4,462,1680.2,2506.7,206.1,60.6,19.2
0.040011,464.9,106.9,1664.2,186.2,2509.8,115.6,460.6,1657.6,2479.7,206.6,60.7,18.7
0.042011,463.0,104.3,1645.4,200.5,2486.4,140.6,459,1632.6,2454.6,207.2,60.8,18.1
0.044011,460.5,100.7,1622.5,218.6,2463.0,163.0,457.2,1605.5,2432.3,207.8,60.9,17.7
0.046011,456.6,95.5,1595.0,244.6,2442.9,185.4,455.4,1577,2413.5,208.5,61.1,17.7
0.048011,451.4,87.2,1557.3,278.9,2421.5,212.3,453.5,1547.5,2398.4,209.2,61.2,17.9
0.050011,446.2,76.2,1504.4,303.2,2392.7,233.3,451.7,1517.7,2387,209.9,61.4,18.2
0.052011,443.0,66.5,1456.1,290.4,2361.9,221.6,450,1488.3,2378.9,210.7,61.6,18.6
0.054011,441.9,60.5,1427.8,258.9,2339.9,176.1,448.4,1460,2373.5,211.4,61.7,19
0.056011,442.5,58.6,1415.6,231.6,2330.2,122.8,447.1,1433.4,2369.9,212.2,61.9,19.3
0.058011,444.2,59.7,1410.1,214.9,2329.0,84.5,446,1409.1,2367.3,213.1,62.1,19.7
0.060011,446.3,61.6,1403.0,205.9,2331.9,59.8,445.2,1387.5,2364.7,213.9,62.2,20
0.062011,447.9,62.0,1389.7,206.0,2337.0,45.2,444.8,1369,2361.4,214.8,62.3,20.4
0.064011,448.4,60.3,1372.0,213.5,2342.7,38.6,444.7,1353.7,2356.7,215.7,62.5,20.6
0.066011,448.4,57.1,1353.6,223.0,2348.2,36.8,445,1341.7,2350.4,216.6,62.6,20.7
0.068011,448.2,53.3,1338.1,231.7,2353.4,39.8,445.6,1332.6,2342.4,217.6,62.7,20.7
0.070011,448.3,50.1,1328.2,238.8,2357.1,48.5,446.5,1326.3,2332.7,218.5,62.7,20.7
0.072011,448.7,47.5,1320.9,245.9,2358.5,64.9,447.7,1322.1,2321.9,219.5,62.8,20.6
0.074011,449.3,45.4,1314.3,254.4,2354.3,93.3,449.1,1319.6,2310.5,220.5,62.8,20.5
0.076011,450.3,44.1,1308.5,262.3,2340.3,129.7,450.6,1318.1,2299.1,221.6,62.8,20.6
0.078011,451.7,43.3,1304.9,266.2,2315.1,165.3,452.3,1317.1,2288.5,222.6,62.8,20.8
0.080011,453.4,43.1,1305.6,263.8,2288.5,184.6,454.1,1315.8,2279.3,223.7,62.7,21
0.082011,455.5,43.1,1309.1,258.6,2266.0,191.5,455.8,1313.9,2271.8,224.7,62.7,21.2
0.084011,457.4,42.8,1311.4,256.9,2249.5,197.4,457.7,1311,2266.3,225.8,62.6,21.3
0.086011,458.7,42.1,1308.7,262.5,2239.4,211.1,459.5,1306.8,2262.8,227,62.5,21.2
0.088011,459.8,41.2,1301.3,271.2,2232.4,233.0,461.4,1301.1,2260.9,228.1,62.4,21
0.090011,461.3,40.6,1291.5,278.4,2228.6,259.1,463.3,1294.1,2260.1,229.2,62.3,20.6
0.092011,463.4,40.8,1284.3,282.2,2232.0,279.3,465.3,1285.9,2259.7,230.3,62.2,20.2
0.094011,466.1,41.8,1281.2,284.2,2242.7,284.1,467.4,1276.8,2258.7,231.5,62.1,19.9
0.096011,469.5,43.7,1279.7,287.1,2253.2,266.1,469.6,1267.2,2256.3,232.6,61.9,19.6
0.098011,472.9,46.0,1274.8,294.3,2253.3,234.8,472,1257.4,2251.5,233.8,61.8,19.4
0.100011,476.2,48.7,1263.5,307.4,2244.1,202.9,474.6,1247.8,2243.9,234.9,61.7,19.2
0.102011,479.2,51.8,1245.6,323.0,2229.7,175.2,477.3,1238.9,2232.8,236,61.5,19
0.104011,481.7,54.9,1227.7,331.3,2215.1,153.4,480.1,1230.8,2218.1,237.1,61.4,18.9
0.106011,484.2,57.9,1213.4,327.4,2202.0,136.7,483,1223.9,2200.1,238.2,61.2,18.9
0.108011,486.7,60.7,1202.7,310.4,2190.9,128.3,485.9,1218.2,2179.3,239.3,61.1,19
0.110011,489.0,63.1,1195.6,287.7,2183.5,132.8,488.8,1213.8,2156.5,240.4,60.9,19.2
0.112011,491.2,65.8,1192.8,265.0,2179.2,152.9,491.6,1210.5,2132.9,241.4,60.8,19.3
0.114011,493.9,69.8,1196.7,243.0,2175.5,192.7,494.2,1208.3,2109.8,242.4,60.6,19.4
0.116011,496.6,75.0,1205.4,222.9,2164.9,249.6,496.4,1206.9,2088.4,243.3,60.5,19.3
0.118011,498.7,80.8,1213.6,205.4,2134.1,326.7,498.3,1206.1,2070.2,244.3,60.3,19
0.120011,499.5,86.1,1217.0,190.6,2065.3,418.3,499.7,1205.7,2056.3,245.1,60.2,18.6
0.122011,499.3,89.4,1216.0,177.0,1969.6,469.5,500.5,1205.5,2047.6,246,60.1,18.3
0.124011,499.4,92.2,1215.7,160.3,1882.2,450.9,500.8,1205.5,2044.6,246.8,60,18.1
