time,f1,b1,f2,b2,f3,b3,f1p,f2p,f3p,f0,intensity,harmonicity
0.025011,417.4,38.0,1238.4,128.2,2623.5,274.0,418.2,1228.6,2620.9,208.5,68.9,8.4
0.027011,417.6,38.3,1237.7,123.6,2621.2,258.6,418,1228.4,2620.8,208.4,68.7,9
0.029011,417.1,39.2,1235.9,118.1,2620.9,250.8,417.8,1228.1,2620.5,208.2,68.6,9.7
0.031011,416.1,40.5,1233.3,110.9,2622.7,248.1,417.5,1227.6,2620.1,208,68.6,10.4
0.033011,415.2,42.3,1230.7,103.3,2625.0,245.0,417.2,1227,2619.6,207.8,68.6,11.3
0.035011,414.4,44.3,1228.6,96.4,2626.6,238.7,416.7,1226.3,2619.1,207.6,68.8,12.3
0.037011,413.9,46.3,1226.8,90.3,2626.5,231.0,416.2,1225.5,2618.4,207.4,68.8,13.7
0.039011,413.6,47.9,1224.8,84.8,2624.0,225.3,415.7,1224.6,2617.6,207.2,68.7,15.4
0.041011,413.4,49.1,1222.7,80.0,2618.6,222.2,415,1223.6,2616.7,207,68.5,17.1
0.043011,413.3,50.1,1221.2,76.0,2609.6,217.9,414.4,1222.6,2615.7,206.8,68.2,18.6
0.045011,413.2,51.0,1220.8,73.2,2599.6,210.5,413.6,1221.4,2614.6,206.6,68.1,19.5
0.047011,413.3,51.6,1221.2,71.2,2591.3,202.7,412.9,1220.3,2613.4,206.4,68,19.5
0.049011,413.3,51.5,1221.9,69.8,2586.6,199.8,412.1,1219.1,2612.1,206.2,67.9,18.9
0.051011,413.0,50.6,1222.4,69.3,2585.5,204.5,411.2,1218,2610.7,206,67.8,18.1
0.053011,412.4,49.2,1222.2,70.1,2587.7,214.3,410.4,1216.8,2609.2,205.8,67.8,17.3
0.055011,411.4,47.7,1221.3,71.6,2592.0,222.8,409.5,1215.7,2607.7,205.6,67.7,17.1
0.057011,410.3,46.6,1219.5,72.8,2596.3,225.4,408.7,1214.7,2606,205.4,67.7,17.4
0.059011,409.2,46.2,1217.1,72.6,2597.9,223.7,407.8,1213.7,2604.2,205.3,67.6,18
0.061011,408.2,45.9,1214.8,71.1,2597.1,223.6,407,1212.8,2602.3,205.1,67.6,18.8
0.063011,407.4,45.1,1213.5,69.1,2595.7,229.0,406.2,1212.1,2600.4,205,67.5,19.7
0.065011,406.7,44.0,1213.4,67.5,2595.6,238.3,405.4,1211.5,2598.3,204.8,67.5,20.9
0.067011,406.1,42.9,1214.3,66.4,2597.4,245.0,404.7,1211.1,2596.2,204.7,67.4,22.3
0.069011,405.7,42.3,1215.4,65.8,2600.2,243.1,404,1210.8,2594,204.6,67.3,24.1
0.071011,405.3,42.1,1216.1,65.6,2602.5,234.3,403.4,1210.8,2591.7,204.5,67.3,25.9
0.073011,404.7,42.1,1215.9,65.7,2604.1,225.3,402.8,1210.9,2589.3,204.4,67.2,27.6
0.075011,404.1,42.0,1214.9,66.2,2605.2,222.2,402.3,1211.3,2586.9,204.3,67.1,28.8
0.077011,403.5,41.7,1213.9,66.8,2606.4,224.0,401.8,1212,2584.4,204.2,67.1,29.6
0.079011,402.9,41.0,1213.1,67.4,2607.2,225.4,401.5,1212.9,2581.8,204.1,67,30.1
0.081011,402.5,40.4,1212.7,67.9,2607.0,220.1,401.2,1214.2,2579.1,204,66.9,30.4
0.083011,402.2,40.3,1212.9,68.0,2605.5,207.0,401,1215.7,2576.4,204,66.9,30.4
0.085011,402.1,40.7,1213.8,68.1,2602.7,192.4,400.9,1217.5,2573.7,203.9,66.8,30.3
0.087011,401.9,41.1,1215.0,68.7,2598.3,184.1,400.9,1219.7,2570.8,203.9,66.7,29.8
0.089011,401.5,41.0,1216.0,70.1,2592.5,184.7,401,1222.1,2567.9,203.8,66.6,29
0.091011,400.9,40.9,1216.5,72.1,2585.4,189.1,401.2,1224.9,2565,203.8,66.6,28
0.093011,400.4,40.9,1216.7,74.0,2577.5,191.4,401.4,1228,2562,203.8,66.5,27.1
0.095011,400.1,41.6,1217.1,75.9,2569.0,188.8,401.8,1231.5,2559,203.8,66.4,26.4
0.097011,400.1,42.8,1218.1,78.0,2559.3,181.7,402.3,1235.3,2556,203.8,66.4,25.9
0.099011,400.4,44.4,1219.6,80.0,2549.2,172.5,402.8,1239.4,2552.9,203.8,66.3,25.6
0.101011,400.7,45.7,1220.4,81.4,2540.9,163.5,403.4,1243.8,2549.8,203.8,66.3,25.4
0.103011,400.9,46.5,1219.5,82.2,2535.7,155.8,404.1,1248.5,2546.6,203.8,66.2,25.1
0.105011,401.1,46.8,1217.7,82.9,2532.7,150.9,404.9,1253.6,2543.5,203.8,66.2,24.9
0.107011,401.6,47.2,1216.4,84.8,2528.9,149.7,405.8,1258.9,2540.3,203.8,66.2,24.7
0.109011,402.3,47.6,1216.8,88.0,2523.8,154.2,406.7,1264.5,2537.1,203.8,66.3,24.6
0.111011,403.1,47.2,1218.9,91.8,2518.9,167.5,407.7,1270.4,2533.9,203.8,66.4,24.5
0.113011,404.0,45.7,1222.8,95.5,2515.5,193.8,408.8,1276.5,2530.7,203.8,66.5,24.3
0.115011,405.3,44.2,1230.4,99.7,2511.8,233.4,409.9,1282.8,2527.5,203.8,66.7,24.1
0.117011,407.5,44.0,1244.5,106.5,2504.3,277.4,411,1289.3,2524.4,203.8,66.9,23.7
0.119011,410.6,45.7,1264.3,117.2,2495.7,306.8,412.2,1296,2521.2,203.8,67.1,23.2
0.121011,414.2,49.0,1289.5,132.5,2491.0,313.9,413.4,1302.8,2518,203.8,67.4,22.7
0.123011,417.9,53.7,1320.5,149.1,2492.5,298.9,414.6,1309.8,2514.9,203.8,67.7,22.2
0.125011,421.3,58.8,1354.5,158.1,2498.1,271.7,415.8,1316.8,2511.8,203.8,67.9,21.9
0.127011,423.9,63.7,1384.3,153.2,2503.2,244.4,417.1,1323.9,2508.7,203.8,68,21.6
0.129011,425.8,68.6,1404.0,139.6,2504.3,223.6,418.3,1331,2505.6,203.8,68.1,21.3
0.131011,426.8,72.9,1414.4,126.5,2501.6,209.1,419.5,1338.1,2502.6,203.7,68.2,21.2
0.133011,427.3,76.3,1419.3,116.7,2496.2,196.7,420.7,1345.2,2499.6,203.7,68.2,21.3
0.135011,427.6,78.6,1421.5,110.2,2490.2,185.1,421.9,1352.1,2496.7,203.7,68.2,21.8
0.137011,427.9,80.0,1422.9,105.3,2485.3,175.2,423,1359,2493.8,203.6,68.2,22.8
0.139011,428.1,80.6,1423.5,102.4,2482.5,170.0,424.1,1365.7,2491,203.6,68.1,24.4
0.141011,427.8,80.4,1423.3,101.8,2481.9,170.6,425.2,1372.3,2488.2,203.5,68.1,26.2
0.143011,427.3,79.7,1422.3,102.8,2482.7,174.8,426.2,1378.6,2485.4,203.5,68.1,27.9
0.145011,426.9,79.0,1420.9,104.0,2483.7,178.4,427.1,1384.7,2482.8,203.4,68.1,29.1
0.147011,426.8,78.6,1419.6,104.4,2484.0,177.9,428,1390.4,2480.2,203.4,68.2,29.7
0.149011,427.1,78.8,1418.4,103.3,2482.5,173.0,428.8,1395.9,2477.6,203.3,68.2,29.9
0.151011,427.7,79.6,1417.3,101.0,2478.9,167.0,429.5,1401,2475.1,203.2,68.2,29.9
0.153011,428.4,80.7,1415.7,98.0,2474.5,163.1,430.2,1405.8,2472.7,203.2,68.2,30
0.155011,428.6,81.7,1413.7,96.4,2472.2,163.2,430.8,1410.1,2470.4,203.1,68.2,30.2
0.157011,428.1,82.2,1411.4,97.4,2473.8,164.7,431.3,1414,2468.2,203,68.2,30.5
0.159011,427.5,82.3,1409.0,99.9,2476.4,162.8,431.7,1417.5,2466,203,68.2,30.8
0.161011,427.2,82.2,1406.9,102.1,2476.2,156.4,432,1420.4,2463.9,202.9,68.2,31.2
0.163011,427.4,82.3,1405.1,103.2,2472.3,148.2,432.3,1422.9,2461.9,202.8,68.2,31.8
0.165011,428.0,82.6,1403.9,103.2,2466.7,141.9,432.5,1424.8,2460,202.8,68.2,32.5
0.167011,428.5,83.0,1402.7,102.9,2461.2,137.9,432.6,1426.2,2458.2,202.7,68.2,33.6
0.169011,428.9,83.6,1401.6,102.5,2457.1,135.6,432.7,1427.1,2456.5,202.6,68.2,35.1
0.171011,429.3,84.2,1400.5,102.3,2455.3,133.5,432.6,1427.3,2454.9,202.6,68.2,36.6
0.173011,429.8,85.0,1399.3,102.6,2455.9,130.9,432.5,1427,2453.4,202.5,68.2,37.9
0.175011,430.2,85.9,1397.8,103.6,2459.0,129.1,432.4,1426.2,2451.9,202.5,68.2,38.5
0.177011,430.6,87.0,1395.7,105.1,2463.4,129.3,432.2,1424.7,2450.6,202.4,68.2,38.4
0.179011,430.8,88.2,1393.2,107.2,2467.1,132.3,431.9,1422.6,2449.4,202.4,68.2,37.7
0.181011,430.6,88.9,1390.8,109.8,2467.7,137.4,431.6,1420,2448.3,202.4,68.2,36.6
0.183011,430.3,89.0,1388.5,112.9,2465.0,143.3,431.2,1416.8,2447.3,202.3,68.2,35.6
0.185011,429.9,88.5,1386.1,116.1,2460.9,148.1,430.8,1413.1,2446.4,202.3,68.2,34.9
0.187011,429.6,87.7,1383.6,119.1,2457.4,150.5,430.3,1408.7,2445.7,202.3,68.2,34.6
0.189011,429.6,87.2,1380.7,122.4,2455.3,150.0,429.8,1403.9,2445.1,202.3,68.2,34.3
0.191011,429.7,87.1,1377.4,126.2,2454.3,147.0,429.3,1398.5,2444.5,202.3,68.2,34.2
0.193011,429.8,87.4,1373.8,130.5,2453.5,143.0,428.8,1392.7,2444.2,202.3,68.2,34.1
0.195011,430.0,88.2,1370.3,133.7,2451.8,140.5,428.2,1386.3,2443.9,202.3,68.2,34.1
0.197011,430.4,89.3,1366.7,135.2,2448.9,140.2,427.7,1379.6,2443.8,202.3,68.2,34.3
0.199011,430.8,90.4,1362.7,135.8,2445.5,141.4,427.1,1372.4,2443.8,202.3,68.2,34.6
0.201011,431.2,90.9,1358.1,136.8,2442.9,142.1,426.6,1364.8,2444,202.4,68.2,35
0.203011,431.4,91.0,1352.8,138.7,2441.5,141.5,426,1356.9,2444.2,202.4,68.2,35.4
0.205011,431.5,90.8,1346.8,141.6,2440.8,141.4,425.5,1348.6,2444.7,202.5,68.2,35.6
0.207011,431.2,90.6,1340.2,145.0,2440.0,143.7,425,1340.1,2445.3,202.6,68.1,35.7
0.209011,430.5,90.2,1332.8,149.2,2438.8,148.8,424.5,1331.4,2446,202.7,68.1,35.6
0.211011,429.4,89.5,1325.3,154.1,2438.0,153.8,424,1322.4,2446.9,202.8,68.1,35.5
0.213011,428.0,88.2,1316.9,159.7,2437.8,157.5,423.5,1313.3,2448,202.9,68,35.4
0.215011,426.5,86.4,1306.9,164.9,2438.2,160.4,423.1,1304.1,2449.2,203,68,35.4
0.217011,424.9,84.3,1295.7,168.7,2438.5,164.1,422.7,1294.9,2450.5,203.2,67.9,35.4
0.219011,423.5,82.2,1284.5,170.7,2438.1,168.4,422.3,1285.6,2452.1,203.3,67.9,35.6
0.221011,422.3,80.7,1274.7,170.7,2436.7,170.3,421.9,1276.4,2453.8,203.5,67.8,35.7
0.223011,421.5,79.6,1265.5,167.5,2435.1,167.1,421.6,1267.2,2455.7,203.7,67.8,35.7
0.225011,421.0,78.8,1256.8,160.1,2434.2,159.3,421.3,1258.1,2457.7,204,67.7,35.5
0.227011,420.5,77.5,1247.4,148.9,2434.7,150.4,421,1249.3,2460,204.2,67.7,35
0.229011,419.7,75.4,1237.6,136.2,2436.6,145.6,420.8,1240.6,2462.4,204.4,67.6,34.4
0.231011,418.5,72.2,1227.9,125.0,2440.1,148.8,420.5,1232.2,2465,204.7,67.6,33.6
0.233011,417.0,68.3,1219.5,116.1,2445.4,160.0,420.3,1224.1,2467.7,205,67.5,32.6
0.235011,415.8,64.6,1213.4,109.1,2452.0,175.3,420.1,1216.3,2470.7,205.2,67.5,31.6
0.237011,414.9,61.4,1209.9,103.3,2459.5,191.0,419.9,1208.9,2473.8,205.5,67.4,30.2
0.239011,414.5,58.8,1208.8,98.5,2468.2,205.0,419.7,1201.9,2477.1,205.8,67.3,28.6
0.241011,414.6,57.0,1209.6,94.9,2477.4,212.5,419.6,1195.4,2480.6,206.1,67.3,27
0.243011,415.0,55.8,1211.7,92.5,2486.8,212.5,419.4,1189.4,2484.2,206.4,67.2,25.4
0.245011,415.7,55.4,1214.5,91.9,2495.2,206.9,419.2,1183.9,2488,206.8,67.2,24.3
0.247011,416.7,55.6,1217.9,93.7,2503.0,199.0,419,1178.9,2492,207.1,67.1,23.4
0.249011,417.6,55.8,1221.8,98.5,2511.5,191.5,418.8,1174.5,2496.2,207.4,67,22.8
0.251011,418.3,55.6,1225.9,107.2,2521.0,185.1,418.6,1170.7,2500.6,207.7,66.9,22.4
0.253011,418.9,55.3,1229.6,120.1,2529.9,178.7,418.4,1167.6,2505.1,208,66.8,22.3
0.255011,419.4,55.3,1232.5,136.9,2536.2,170.5,418.1,1165,2509.7,208.3,66.7,22.5
0.257011,419.8,55.8,1232.6,154.4,2538.8,162.1,417.8,1163.1,2514.5,208.6,66.6,23.1
0.259011,420.0,56.5,1228.5,172.5,2539.3,156.7,417.5,1161.9,2519.5,208.8,66.4,24.3
0.261011,419.7,56.9,1219.4,191.7,2539.6,157.1,417.1,1161.3,2524.6,209.1,66.3,25.6
0.263011,418.9,57.0,1206.2,211.5,2541.2,162.4,416.7,1161.3,2529.9,209.4,66.1,26.9
0.265011,417.8,56.8,1191.1,228.8,2544.7,168.5,416.3,1162.1,2535.2,209.6,65.9,27.9
0.267011,416.6,56.6,1176.8,239.8,2550.0,172.9,415.8,1163.5,2540.7,209.9,65.7,28.7
0.269011,415.2,56.5,1164.9,245.0,2556.8,178.1,415.2,1165.5,2546.3,210.1,65.5,29.4
0.271011,413.8,56.9,1156.8,247.5,2563.7,185.3,414.6,1168.2,2552,210.4,65.2,29.9
0.273011,412.5,57.9,1150.7,251.6,2569.8,191.6,413.9,1171.5,2557.7,210.6,65,30.2
0.275011,411.4,59.6,1146.3,259.2,2573.7,191.5,413.2,1175.4,2563.6,210.9,64.7,30.3
0.277011,410.7,62.0,1144.1,270.4,2575.7,186.9,412.4,1179.9,2569.5,211.1,64.4,30
0.279011,410.3,64.5,1144.9,283.6,2578.1,186.8,411.6,1184.9,2575.5,211.4,64.1,29.5
0.281011,409.7,66.9,1148.2,298.0,2583.2,197.6,410.7,1190.4,2581.5,211.6,63.8,28.8
0.283011,408.4,68.8,1151.3,315.0,2592.3,218.9,409.7,1196.5,2587.5,211.9,63.4,27.9
0.285011,406.0,70.5,1151.6,336.9,2604.7,244.3,408.7,1203,2593.6,212.2,63.1,26.9
0.287011,403.1,71.9,1148.1,357.9,2614.9,260.4,407.7,1209.9,2599.6,212.5,62.7,25.6
0.289011,399.8,72.8,1142.7,369.9,2620.0,259.2,406.6,1217.2,2605.7,212.9,62.3,24.1
0.291011,396.3,73.4,1139.2,366.2,2619.8,239.7,405.5,1224.8,2611.7,213.2,61.9,22.5
0.293011,392.6,73.8,1142.8,348.2,2616.9,209.9,404.3,1232.8,2617.6,213.6,61.6,20.9
0.295011,389.1,74.4,1155.8,322.8,2613.8,182.0,403.1,1241,2623.5,214,61.2,19.5
0.297011,387.3,75.2,1176.8,296.2,2612.5,163.2,401.8,1249.4,2629.4,214.4,60.9,18.2
0.299011,388.8,76.2,1203.4,270.2,2614.1,153.1,400.6,1257.9,2635.1,214.9,60.6,16.9
0.301011,393.0,76.8,1230.4,247.0,2618.1,148.3,399.3,1266.6,2640.7,215.4,60.3,15.8
0.303011,398.5,76.3,1257.0,226.5,2622.5,143.9,398,1275.3,2646.2,215.9,60,14.9
0.305011,403.5,74.7,1283.2,212.3,2625.3,137.4,396.7,1284.1,2651.6,216.4,59.7,14.1
0.307011,406.9,72.4,1307.7,206.3,2626.5,130.3,395.4,1292.8,2656.8,216.9,59.5,13.8
0.309011,408.4,70.2,1327.4,209.1,2628.9,127.7,394.1,1301.4,2661.9,217.4,59.2,13.9
0.311011,408.4,69.0,1341.0,224.3,2635.3,135.7,392.8,1309.8,2666.8,217.9,58.9,14.1
0.313011,408.6,70.6,1353.3,258.2,2647.5,157.5,391.6,1318.1,2671.5,218.5,58.6,14.1
0.315011,411.2,76.3,1373.9,309.6,2664.1,184.1,390.4,1326.2,2676,219,58.2,13.6
0.317011,415.7,81.8,1400.1,349.7,2676.1,190.8,389.2,1333.9,2680.2,219.5,57.8,15.7
0.319011,418.4,82.4,1419.5,366.2,2681.6,178.7,388.1,1341.4,2684.2,220.1,57.2,20.6
0.321011,417.2,78.9,1424.9,370.0,2683.2,161.8,387,1348.4,2688,220.6,56.6,23.6
0.323011,412.3,77.3,1414.5,378.4,2684.1,149.2,386,1355.1,2691.5,221.1,55.9,20.3
0.325011,405.1,83.5,1386.2,397.5,2686.0,144.6,385,1361.3,2694.8,0,55.1,5.9
0.327011,398.9,92.2,1353.9,408.0,2689.9,145.9,384.1,1367.1,2697.8,0,54.2,-25.8
0.329011,396.3,90.9,1335.9,406.5,2696.3,150.8,383.3,1372.3,2700.5,0,53.1,-72
0.331011,394.8,77.6,1319.9,420.1,2706.1,170.1,382.6,1377,2702.8,0,51.9,-122.9
0.333011,393.6,58.1,1281.7,439.6,2719.2,228.6,382,1381.1,2704.9,0,50.4,-168.8
0.335011,393.6,40.3,1239.7,406.4,2716.8,348.9,381.4,1384.7,2706.7,0,48.5,-200
0.337011,392.9,30.5,1240.0,378.5,2690.9,440.9,381,1387.6,2708.2,0,46.2,-213.2
0.339011,387.0,31.0,1285.4,445.5,2718.6,518.5,380.6,1389.9,2709.3,0,43.5,-214.8
0.341011,366.6,47.1,1391.9,660.6,2762.6,682.8,380.4,1391.5,2710.1,0,40.4,-209.9
0.343011,313.2,86.2,1575.9,892.5,2767.5,877.7,380.2,1392.5,2710.6,0,37.5,-203.3
0.345011,245.9,107.3,1756.2,845.1,2730.9,917.0,380.1,1392.8,2710.8,0,35.6,-200
