time,f1,b1,f2,b2,f3,b3,f1p,f2p,f3p,f0,intensity,harmonicity
0.026000,417.1,43.1,1370.2,202.1,3018.5,375.4,433.3,1300.1,2995.3,207.9,55.5,9.9
0.028000,419.3,45.6,1356.0,187.1,3018.6,409.5,434.8,1300.2,2995.2,207.9,55.6,11.8
0.030000,422.7,49.7,1346.9,175.2,3024.8,417.2,437.2,1300.3,2995.1,207.9,55.8,13.8
0.032000,426.7,54.2,1340.9,173.7,3031.5,407.9,440.7,1300.5,2994.9,207.9,55.9,15.5
0.034000,430.4,58.6,1332.7,181.2,3026.3,409.0,445,1300.7,2994.7,207.9,56.1,16.7
0.036000,433.4,63.1,1318.2,187.4,3004.6,430.5,450.2,1300.8,2994.4,207.9,56.2,17.1
0.038000,436.5,68.5,1300.2,181.5,2973.4,462.2,456.3,1301,2994.1,207.9,56.2,16.8
0.040000,441.0,75.6,1286.4,170.8,2948.2,479.9,463.1,1301.1,2993.8,207.9,56.3,15.9
0.042000,448.6,85.5,1277.6,166.2,2934.8,479.6,470.6,1301.1,2993.5,207.9,56.3,14.9
0.044000,459.3,98.0,1272.8,172.0,2932.9,479.1,478.6,1301,2993.2,207.9,56.3,14.1
0.046000,473.4,114.2,1271.0,187.2,2943.1,481.5,487.3,1300.8,2993,207.9,56.3,13.7
0.048000,492.2,134.1,1272.1,208.2,2963.5,470.8,496.3,1300.4,2992.8,207.9,56.3,13.6
0.050000,515.6,151.7,1275.1,227.1,2985.2,442.5,505.7,1299.7,2992.8,207.9,56.3,13.5
0.052000,539.5,158.4,1278.4,236.4,2999.6,409.4,515.4,1298.8,2992.8,207.9,56.5,13.6
0.054000,561.1,152.3,1280.3,235.8,3006.5,383.3,525.3,1297.6,2992.9,207.9,56.7,13.8
0.056000,577.7,137.6,1280.4,230.1,3007.6,372.9,535.2,1296,2993.1,207.9,57,14
0.058000,589.9,120.4,1280.3,224.8,3004.9,372.8,545.1,1294.1,2993.5,207.9,57.3,14.3
0.060000,599.0,104.7,1280.9,221.1,3000.7,373.1,554.9,1291.9,2994,207.9,57.7,14.8
0.062000,605.4,92.5,1280.5,216.8,2999.0,369.5,564.5,1289.2,2994.7,207.9,58.1,15.3
0.064000,609.5,84.0,1276.7,208.4,3001.9,363.8,573.8,1286.1,2995.6,207.9,58.4,15.9
0.066000,612.3,78.0,1269.6,193.7,3008.5,355.8,582.8,1282.7,2996.6,207.9,58.6,16.7
0.068000,614.2,74.0,1261.3,175.4,3015.8,348.1,591.4,1278.7,2997.8,207.9,58.9,17.6
0.070000,615.6,71.4,1253.0,156.9,3021.6,345.9,599.4,1274.4,2999.2,207.9,59.1,18.7
0.072000,616.6,69.6,1245.3,139.8,3024.4,350.9,607,1269.6,3000.7,207.9,59.2,19.7
0.074000,617.4,68.2,1238.3,124.4,3023.2,361.1,613.9,1264.4,3002.4,207.9,59.4,20.6
0.076000,618.1,67.0,1232.6,111.6,3019.7,373.1,620.2,1258.8,3004.2,208,59.4,21.2
0.078000,618.7,65.7,1227.4,101.0,3016.0,383.8,625.9,1252.9,3006.2,208,59.5,21.5
0.080000,619.4,64.9,1223.1,93.5,3013.6,386.1,630.8,1246.6,3008.3,208,59.6,21.7
0.082000,620.2,64.9,1219.6,88.7,3011.4,378.1,635.1,1239.9,3010.5,208,59.6,21.8
0.084000,621.3,65.7,1216.9,85.9,3008.8,363.8,638.6,1233.1,3012.8,208.1,59.6,22
0.086000,622.6,67.0,1215.1,84.6,3006.7,346.7,641.5,1225.9,3015.1,208.1,59.7,22.4
0.088000,623.8,68.5,1214.2,84.4,3006.7,329.9,643.6,1218.6,3017.5,208.1,59.7,22.9
0.090000,624.8,69.8,1213.7,85.3,3009.5,314.2,645.1,1211.2,3019.9,208.2,59.7,23.5
0.092000,625.5,70.7,1213.3,87.2,3014.4,301.5,646,1203.6,3022.3,208.2,59.7,24.2
0.094000,625.9,71.5,1212.6,89.8,3019.4,291.0,646.2,1196.1,3024.6,208.3,59.6,24.8
0.096000,626.1,72.6,1211.5,93.1,3023.1,283.1,645.9,1188.5,3026.9,208.3,59.6,25.4
0.098000,626.1,74.1,1209.7,97.1,3025.2,281.3,645,1181,3029.2,208.4,59.5,26
0.100000,625.9,75.6,1206.2,101.8,3026.8,290.3,643.7,1173.6,3031.3,208.4,59.5,26.5
0.102000,625.4,76.6,1200.7,106.8,3028.9,311.3,641.9,1166.4,3033.3,208.5,59.4,27.1
0.104000,624.8,77.0,1193.5,112.3,3031.7,337.5,639.7,1159.3,3035.1,208.5,59.4,27.5
0.106000,624.3,77.5,1185.7,118.7,3034.1,356.5,637.3,1152.5,3036.9,208.6,59.3,27.8
0.108000,624.1,78.8,1177.8,126.3,3034.5,358.7,634.5,1146,3038.4,208.7,59.3,27.9
0.110000,624.2,80.9,1169.9,133.8,3033.2,349.0,631.5,1139.8,3039.8,208.7,59.3,28
0.112000,624.2,83.5,1161.4,140.2,3031.8,338.2,628.4,1133.9,3041,208.8,59.2,27.9
0.114000,623.8,85.8,1152.6,144.0,3032.6,334.8,625.2,1128.4,3042,208.9,59.2,27.9
0.116000,622.9,87.6,1143.8,145.0,3035.7,338.5,621.9,1123.3,3042.8,209,59.2,28
0.118000,621.5,88.4,1134.8,143.2,3038.5,343.6,618.6,1118.5,3043.5,209,59.1,28.2
0.120000,619.7,88.2,1126.0,138.8,3038.4,347.0,615.3,1114.1,3044,209.1,59.1,28.5
0.122000,618.2,87.9,1118.1,133.4,3036.9,349.7,612.1,1110.1,3044.3,209.2,59.1,28.7
0.124000,617.1,88.3,1110.4,128.4,3037.3,354.5,608.9,1106.5,3044.6,209.3,59,28.5
0.126000,616.1,89.7,1102.8,125.0,3040.8,364.8,605.9,1103.2,3044.7,209.4,59,27.8
0.128000,614.8,91.8,1095.3,123.1,3045.6,379.0,603,1100.2,3044.7,209.5,59,26.4
0.130000,613.2,94.6,1088.6,122.6,3050.4,389.1,600.2,1097.6,3044.7,209.6,59,24.6
0.132000,611.7,97.5,1083.8,122.4,3054.9,390.9,597.6,1095.2,3044.7,209.8,58.9,22.9
0.134000,610.5,99.7,1081.4,120.8,3058.0,386.3,595.2,1093,3044.7,209.9,58.9,21.6
0.136000,609.4,101.4,1080.2,117.0,3058.7,378.8,592.9,1091,3044.7,210,58.9,21.3
0.138000,607.9,102.6,1078.4,111.6,3055.6,374.0,590.7,1089.2,3044.8,210.2,58.8,21.7
0.140000,605.6,103.2,1075.1,105.2,3050.3,376.4,588.6,1087.5,3045.1,210.3,58.8,22.7
0.142000,602.6,103.5,1070.6,98.7,3046.6,384.2,586.7,1085.9,3045.5,210.5,58.7,23.7
0.144000,599.5,104.9,1066.4,93.5,3047.7,388.5,584.8,1084.3,3046.1,210.6,58.6,24.5
0.146000,596.7,107.3,1063.3,89.9,3052.8,384.9,582.9,1082.7,3046.9,210.8,58.5,24.8
0.148000,593.5,109.8,1061.0,86.6,3057.8,376.7,581.1,1081.1,3048,211,58.4,24.8
0.150000,589.9,111.5,1058.7,82.9,3059.4,371.5,579.2,1079.4,3049.4,211.2,58.3,24.5
0.152000,585.4,112.5,1055.9,78.7,3058.3,375.6,577.3,1077.6,3051.1,211.4,58.2,24.2
0.154000,580.4,113.1,1052.6,74.3,3055.4,386.0,575.3,1075.8,3053.2,211.6,58.1,23.8
0.156000,575.6,114.0,1049.8,70.2,3052.3,389.5,573.2,1073.8,3055.7,211.8,58,23.3
0.158000,570.7,116.2,1047.9,66.5,3052.7,379.0,570.9,1071.7,3058.5,212.1,57.9,22.7
0.160000,565.8,119.5,1047.1,63.0,3058.3,361.5,568.5,1069.5,3061.7,212.3,57.7,22
0.162000,560.7,122.8,1046.9,59.7,3066.5,346.8,565.8,1067.2,3065.4,212.6,57.6,21.3
0.164000,555.5,125.5,1047.5,56.9,3074.1,338.0,562.9,1064.8,3069.4,212.8,57.5,20.9
0.166000,550.5,127.9,1048.8,55.1,3079.2,333.5,559.7,1062.4,3073.8,213.1,57.5,20.7
0.168000,545.7,129.7,1050.7,53.7,3081.1,331.8,556.3,1060,3078.6,213.4,57.4,20.9
0.170000,540.2,130.1,1052.7,51.7,3080.7,333.2,552.5,1057.6,3083.8,213.7,57.3,21.4
0.172000,533.8,129.0,1054.0,49.1,3080.4,336.8,548.5,1055.4,3089.3,214,57.3,21.8
0.174000,527.2,126.9,1054.8,46.6,3083.3,338.6,544.1,1053.3,3095.1,214.3,57.2,22.1
0.176000,521.0,125.0,1055.7,44.9,3090.0,334.3,539.5,1051.5,3101.1,214.7,57.2,22.2
0.178000,515.4,123.7,1057.1,44.2,3098.0,323.6,534.5,1050.1,3107.4,215,57.1,22.1
0.180000,510.3,123.0,1059.1,44.5,3104.2,311.9,529.3,1049.1,3113.8,215.4,57.1,21.9
0.182000,505.1,122.0,1061.9,45.1,3108.4,305.7,523.8,1048.7,3120.3,215.8,57.1,21.7
0.184000,500.0,119.4,1065.1,45.4,3113.3,310.8,518.1,1048.8,3127,216.1,57,21.5
0.186000,494.9,115.0,1068.6,44.7,3122.6,324.2,512.2,1049.8,3133.6,216.5,57,21.5
0.188000,489.8,109.9,1072.4,42.9,3136.3,333.6,506.2,1051.5,3140.1,216.9,56.9,21.6
0.190000,484.8,104.8,1076.7,40.2,3150.2,330.8,500,1054.3,3146.5,217.3,56.9,21.8
0.192000,480.3,100.4,1081.2,37.1,3160.6,322.2,493.7,1058.1,3152.7,217.7,56.8,22
0.194000,476.1,96.7,1086.3,34.3,3170.0,317.9,487.4,1063,3158.7,218.1,56.8,21.9
0.196000,472.7,94.2,1091.5,32.6,3181.7,323.2,481.2,1069.2,3164.3,218.6,56.7,21.6
0.198000,469.9,93.0,1096.7,32.4,3196.7,332.0,475,1076.7,3169.5,219,56.6,20.8
0.200000,467.9,93.6,1102.4,33.8,3209.8,337.0,468.9,1085.7,3174.3,219.4,56.5,19.9
0.202000,466.5,95.8,1108.8,37.1,3214.6,341.4,463,1096.2,3178.5,219.8,56.4,18.9
0.204000,465.3,99.3,1115.9,42.6,3209.3,351.3,457.3,1108.2,3182.2,220.2,56.3,18.2
0.206000,464.0,104.0,1124.8,51.8,3194.6,365.9,451.9,1121.8,3185.3,220.7,56.2,17.8
0.208000,462.6,109.1,1136.2,66.5,3174.4,376.4,446.8,1137,3187.8,221.1,56.1,17.7
0.210000,461.8,112.5,1152.4,88.9,3156.5,374.7,442.1,1153.9,3189.5,221.5,56,17.8
0.212000,461.8,112.1,1176.2,117.8,3150.6,359.1,437.7,1172.4,3190.6,221.9,55.9,17.9
0.214000,461.6,106.9,1206.2,144.6,3157.0,335.2,433.8,1192.6,3190.8,222.2,55.8,18.1
0.216000,460.5,98.1,1240.6,162.4,3168.5,310.0,430.4,1214.4,3190.4,222.6,55.8,18.1
0.218000,458.3,88.5,1275.0,167.7,3176.3,294.5,427.5,1237.7,3189.2,222.9,55.8,18
0.220000,455.7,79.4,1308.9,161.4,3176.5,292.5,425.1,1262.5,3187.2,223.2,55.8,18
0.222000,453.6,71.0,1339.1,146.8,3168.5,296.6,423.1,1288.7,3184.4,223.5,55.8,17.9
0.224000,452.3,64.2,1363.1,131.5,3156.1,293.4,421.8,1316.2,3181,223.7,55.9,17.7
0.226000,451.7,59.2,1381.9,122.0,3146.4,281.0,420.9,1344.9,3176.9,224,55.9,17.5
0.228000,451.4,55.2,1399.8,118.6,3141.9,267.3,420.6,1374.6,3172.1,224.1,55.9,17.4
0.230000,451.1,52.1,1417.6,120.4,3142.8,261.2,420.7,1405.2,3166.7,224.3,55.9,17.2
0.232000,450.6,49.6,1434.6,125.6,3147.4,266.7,421.4,1436.6,3160.7,224.4,55.8,16.9
0.234000,449.9,47.6,1449.6,133.4,3153.8,284.0,422.5,1468.4,3154.2,224.4,55.5,16.3
0.236000,449.1,46.3,1462.2,144.7,3161.9,313.6,424,1500.6,3147.4,224.5,55.1,16.4
0.238000,448.6,45.8,1471.9,159.0,3172.8,358.8,425.9,1532.9,3140.1,224.4,54.4,20.6
0.240000,448.7,47.1,1481.1,177.4,3186.5,416.9,428.1,1565.2,3132.6,224.4,53.4,25.4
0.242000,449.3,52.0,1493.5,199.4,3195.8,448.9,430.6,1597.2,3124.9,224.3,52.2,26
0.244000,448.7,61.8,1509.9,225.3,3200.1,443.0,433.4,1628.6,3117.1,224.1,50.7,17.8
0.246000,442.2,78.3,1527.3,258.3,3203.5,438.7,436.3,1659.4,3109.2,223.9,48.9,-4.8
0.248000,419.1,107.7,1546.3,315.8,3204.0,477.6,439.4,1689.1,3101.5,223.7,46.9,-45.5
0.250000,365.1,148.0,1576.5,418.7,3183.7,589.9,442.5,1717.8,3093.8,223.5,44.9,-96
0.252000,287.5,141.7,1642.3,562.4,3104.4,765.7,445.6,1745,3086.4,223.2,43.1,-146.3
0.254000,243.6,83.4,1761.6,632.6,3053.5,829.8,448.7,1770.6,3079.3,222.9,41.5,-186.7
0.256000,230.6,51.1,1823.6,599.1,3038.8,816.7,451.7,1794.5,3072.7,222.6,40.3,-208.5
0.258000,228.4,42.0,1821.7,544.8,3002.7,747.1,454.5,1816.4,3066.5,222.2,39.2,-215.4
0.260000,228.7,43.0,1823.3,514.0,2985.7,697.8,457.2,1836.1,3060.8,221.9,38.2,-213.1
0.262000,229.4,54.4,1835.7,538.6,2958.8,738.9,459.5,1853.6,3055.8,221.6,37.2,-206.6
0.264000,231.0,89.9,1832.7,635.3,2863.9,856.0,461.6,1868.6,3051.4,221.2,36,-200.9
0.266000,232.4,176.3,1768.8,766.8,2702.3,857.3,463.4,1881,3047.8,220.9,34.6,-200
0.268000,219.9,341.6,1654.1,819.5,2597.3,744.1,464.8,1890.8,3044.9,220.5,33.1,-200
0.270000,145.2,604.0,1561.4,794.1,2560.4,698.0,465.8,1897.8,3042.8,0,31.2,-200
0.272000,1502.0,758.9,2554.4,747.6,3749.0,635.8,466.4,1902.1,3041.6,0,29.5,-200
0.274000,1454.5,762.8,2554.1,906.8,3717.5,715.2,466.6,1903.5,3041.1,0,27.8,-200
