time,f1,b1,f2,b2,f3,b3,f1p,f2p,f3p,f0,intensity,harmonicity
0.025989,717.4,141.9,1966.5,183.0,3029.7,176.5,737.9,1954.8,3035.2,202.3,69.7,7.3
0.027989,731.5,149.3,1952.8,191.2,3021.3,194.5,741.3,1947.5,3026.1,202.3,69.7,8.7
0.029989,744.8,154.9,1935.9,200.8,3010.6,221.5,746.9,1935.8,3011.5,202.4,69.7,10.3
0.031989,758.4,158.9,1915.6,211.1,2995.4,259.1,754.2,1920.2,2992.3,202.5,69.8,11.8
0.033989,771.5,161.4,1894.3,221.2,2974.9,302.3,763,1901.3,2969.5,202.5,69.9,13
0.035989,783.4,162.6,1872.6,231.9,2949.3,339.5,772.8,1879.9,2944.3,202.6,70,13.6
0.037989,793.6,163.2,1850.1,240.1,2922.4,356.7,783.1,1857,2918.2,202.7,70.2,13.7
0.039989,802.0,163.7,1827.2,240.5,2896.8,355.0,793.4,1833.2,2892.4,202.8,70.4,13.6
0.041989,808.6,164.7,1806.0,230.8,2871.8,342.3,803.2,1809.5,2868.1,202.9,70.6,13.3
0.043989,814.8,166.0,1786.2,212.9,2845.7,318.9,812.2,1786.3,2846.4,203,70.8,13.2
0.045989,820.4,167.2,1768.6,192.9,2823.2,290.4,819.9,1764.4,2828.1,203.2,70.9,13.4
0.047989,824.8,167.5,1752.3,175.8,2806.8,265.7,826.1,1744,2813.6,203.3,71.1,13.9
0.049989,827.9,166.9,1736.8,163.3,2796.9,246.5,830.6,1725.2,2803.2,203.5,71.2,14.6
0.051989,829.8,166.0,1721.6,155.2,2792.3,229.8,833.3,1708.2,2796.9,203.6,71.3,15.1
0.053989,830.7,164.8,1702.9,148.3,2790.4,214.2,834.3,1692.8,2794.3,203.8,71.4,15.4
0.055989,829.4,162.1,1679.7,140.7,2790.4,205.3,833.7,1678.6,2794.9,203.9,71.5,15.3
0.057989,825.5,156.0,1655.1,130.8,2793.4,206.8,831.7,1665.4,2798.1,204.1,71.6,14.6
0.059989,820.9,147.1,1635.2,119.3,2800.9,216.1,828.5,1652.9,2803.1,204.3,71.8,13.7
0.061989,817.6,138.0,1623.0,108.2,2813.4,224.1,824.6,1640.6,2809.3,204.4,71.9,12.7
0.063989,816.1,131.0,1616.7,99.3,2828.4,224.5,820.1,1628.2,2816,204.6,72.1,11.9
0.065989,815.4,125.4,1612.2,91.9,2843.3,219.7,815.4,1615.4,2822.6,204.7,72.2,11.4
0.067989,814.4,120.9,1607.4,86.7,2851.8,216.5,810.8,1602.2,2828.8,204.8,72.3,11
0.069989,812.6,117.0,1600.5,84.5,2850.1,218.1,806.5,1588.4,2834.4,204.9,72.4,10.8
0.071989,810.0,114.2,1589.9,85.7,2839.2,220.9,802.7,1573.9,2839.4,205,72.4,10.6
0.073989,807.1,113.2,1572.5,89.2,2826.0,217.6,799.4,1558.9,2843.9,205.1,72.3,10.6
0.075989,803.8,113.6,1549.1,90.7,2819.3,205.3,796.7,1543.5,2848.2,205.1,72.3,10.7
0.077989,799.7,113.0,1523.0,87.7,2823.0,187.0,794.5,1527.7,2852.6,205.1,72.2,10.8
0.079989,795.4,111.1,1501.8,82.9,2836.3,170.2,792.6,1511.7,2857.6,205.1,72,11.1
0.081989,791.6,109.2,1486.0,80.8,2855.0,158.3,790.9,1495.5,2863.4,205.1,71.8,11.4
0.083989,788.1,108.2,1472.9,82.7,2874.6,152.9,789.2,1479.1,2870.5,205,71.6,11.9
0.085989,784.4,108.5,1460.3,88.4,2893.0,155.7,787.2,1462.4,2878.9,204.9,71.3,12.6
0.087989,780.4,110.2,1448.2,96.7,2909.7,165.0,784.7,1445.2,2888.7,204.8,70.9,13.7
0.089989,775.7,114.2,1434.0,107.9,2924.8,175.5,781.4,1427.4,2899.9,204.6,70.6,15
0.091989,770.6,120.6,1416.0,121.3,2934.9,177.5,777.1,1408.8,2912.3,204.4,70.2,16.1
0.093989,765.0,129.4,1392.4,133.9,2939.3,168.2,771.8,1389,2925.4,204.2,69.9,16.5
0.095989,758.9,138.8,1365.1,141.3,2941.1,154.1,765.3,1367.8,2939,203.9,69.6,15.9
0.097989,752.4,146.8,1338.4,142.2,2943.6,144.0,757.6,1345.2,2952.5,203.6,69.2,14.2
0.099989,746.1,152.5,1315.0,140.4,2948.4,142.1,748.8,1321,2965.4,203.4,68.8,11.9
0.101989,739.3,158.3,1291.1,138.0,2956.7,145.6,739,1295.4,2977.4,203,68.4,9.4
0.103989,731.6,166.0,1265.5,133.2,2967.8,146.0,728.5,1268.6,2988.1,202.7,68,7.2
0.105989,722.3,177.8,1238.7,124.6,2981.0,135.5,717.5,1241,2997.3,202.4,67.5,5.6
0.107989,712.0,197.1,1213.1,115.3,2996.2,119.1,706.3,1213.2,3004.8,202.1,67,4.3
0.109989,703.1,226.2,1191.1,110.0,3012.9,107.3,695.3,1185.8,3010.6,201.8,66.5,3.2
0.111989,696.3,265.4,1169.9,109.0,3031.0,103.4,684.8,1159.7,3014.8,0,66,2.3
0.113989,691.0,302.4,1148.5,109.5,3045.0,108.1,675.2,1135.7,3017.7,0,65.4,1.6
0.115989,684.3,327.0,1126.1,109.5,3047.0,117.9,666.8,1114.7,3019.5,0,64.9,1.2
0.117989,674.1,335.2,1103.1,109.0,3033.2,123.1,659.9,1097.4,3020.5,0,64.4,1.3
0.119989,657.1,314.1,1082.9,107.4,3014.4,116.3,654.8,1084.5,3021,0,64,1.6
0.121989,632.6,249.6,1068.6,107.6,3004.1,105.7,651.7,1076.5,3021.2,0,63.9,1.9
0.123989,609.8,169.0,1052.7,122.0,3002.3,103.1,650.7,1073.8,3021.3,0,64,2.1
