time,f1,b1,f2,b2,f3,b3,f1p,f2p,f3p,f0,intensity,harmonicity
0.025000,487.9,249.3,958.4,262.0,1782.2,90.1,521.6,952,1832.3,125.6,70.3,15.7
0.027000,494.5,250.5,958.7,254.3,1803.4,94.0,519.5,953.1,1838.3,125.6,70.3,16.6
0.029000,498.6,254.8,960.6,244.9,1832.3,100.8,516.3,954.9,1848.1,125.7,70.4,17.4
0.031000,501.4,253.0,963.3,226.9,1866.9,105.7,512.5,957.2,1861.5,125.8,70.4,18.2
0.033000,506.3,244.7,964.2,208.0,1895.9,104.7,508.6,959.6,1878.4,125.8,70.4,18.9
0.035000,513.0,245.5,962.8,201.4,1919.2,106.6,505.2,962.1,1898.3,125.9,70.5,19.3
0.037000,519.5,262.5,960.0,208.0,1944.9,120.1,502.9,964.2,1920.8,126,70.5,19.3
0.039000,526.3,281.2,958.1,215.4,1975.4,140.6,502.4,965.7,1945.4,126,70.5,19
0.041000,534.5,288.5,957.2,216.5,2004.6,155.6,504.2,966.4,1971.7,126.1,70.6,18.6
0.043000,542.5,292.7,955.1,216.0,2029.0,167.4,508.7,966,1998.9,126.1,70.6,18.2
0.045000,547.2,300.6,951.7,215.3,2050.5,190.5,516,964.4,2026.6,126.2,70.6,18.1
0.047000,550.6,303.8,949.9,210.8,2070.0,230.1,526.2,961.5,2054,126.3,70.6,18.3
0.049000,555.7,296.2,950.2,202.2,2085.6,271.0,539.1,957.3,2080.5,126.3,70.6,18.6
0.051000,561.3,290.9,949.2,195.8,2096.3,308.2,554.2,951.8,2105.4,126.4,70.7,19.1
0.053000,566.1,301.4,946.0,197.6,2100.7,357.8,571.1,945.1,2128.2,126.4,70.7,19.6
0.055000,571.7,320.7,942.5,204.2,2098.5,418.7,588.8,937.5,2148.3,126.5,70.7,20.3
0.057000,579.4,335.3,939.7,209.1,2100.0,476.8,606.7,929.1,2165.2,126.5,70.7,21
0.059000,589.9,358.6,934.7,219.1,2118.5,560.1,623.9,920.3,2178.4,126.5,70.7,22
0.061000,605.5,409.8,924.2,242.7,2158.0,711.4,639.4,911.2,2187.7,126.5,70.7,22.9
0.063000,625.4,467.5,911.2,269.1,2202.0,897.3,652.6,902.2,2193,126.6,70.7,23.8
0.065000,641.0,493.5,902.9,282.2,2232.0,1023.5,662.7,893.4,2194.1,126.6,70.7,24.4
0.067000,649.2,506.2,896.1,284.4,2243.2,1089.5,669.3,885.1,2191.1,126.6,70.7,24.6
0.069000,655.7,543.1,883.5,285.0,2225.5,1140.5,672,877.3,2184.3,126.6,70.7,24.6
0.071000,664.8,592.7,868.7,285.2,2195.7,1173.4,670.9,870.3,2173.9,126.6,70.7,24.5
0.073000,674.1,624.5,858.7,282.3,2184.1,1195.3,666,864,2160.4,126.5,70.7,24.4
0.075000,679.3,670.1,850.1,271.5,2175.5,1229.4,657.8,858.5,2144.3,126.5,70.7,24.3
0.077000,678.2,779.7,838.9,251.6,2137.4,1272.3,646.6,853.7,2126.2,126.5,70.7,24.3
0.079000,671.3,916.7,830.0,232.4,2084.1,1288.3,633.3,849.5,2106.8,126.4,70.7,24.3
0.081000,662.3,992.5,826.9,219.8,2056.9,1263.8,618.5,846,2086.7,126.4,70.7,24.3
0.083000,641.4,1020.4,828.8,209.4,2044.7,1195.5,602.9,842.9,2066.7,126.3,70.7,24.2
0.085000,605.1,1049.3,833.1,199.7,2022.4,1083.9,587.5,840.3,2047.3,126.3,70.7,24
0.087000,577.8,1052.9,837.6,193.6,2003.7,973.5,572.7,838.1,2029.2,126.2,70.7,23.5
0.089000,566.7,1035.3,841.4,188.2,1999.4,910.1,559.1,836.5,2013,126.1,70.7,22.8
0.091000,548.9,1043.4,844.8,180.9,1999.0,883.7,547,835.3,1999,126.1,70.7,22.1
0.093000,517.7,1086.3,848.4,175.2,1992.6,861.8,536.7,834.8,1987.6,126,70.7,21.2
0.095000,497.8,1109.2,852.0,174.8,1987.2,829.9,528.1,835,1979,125.9,70.7,20.4
0.097000,496.6,1089.4,854.8,176.4,1988.5,794.9,521,836.3,1973.4,125.8,70.6,19.4
0.099000,488.8,1063.5,856.3,178.6,1990.2,747.8,515.1,838.7,1970.8,125.7,70.6,18.3
0.101000,468.9,1061.3,855.7,186.4,1986.3,688.1,510,842.5,1971,125.6,70.5,17.2
0.103000,459.2,1074.1,854.2,201.9,1982.7,648.3,505,847.8,1973.9,125.5,70.4,16.3
0.105000,463.2,1084.5,853.8,218.7,1983.8,640.1,499.6,854.8,1979.3,125.4,70.3,15.8
0.107000,464.0,1095.4,854.1,238.4,1985.0,642.1,493.4,863.5,1986.7,125.3,70.2,16
0.109000,467.2,1094.8,853.7,273.7,1983.5,633.7,485.8,874,1995.8,125.2,70.1,16.7
0.111000,493.1,1047.3,855.8,324.8,1987.3,624.0,476.6,886.2,2006.2,125.1,70.1,17.6
0.113000,518.3,958.7,869.1,367.1,2001.8,624.9,465.7,899.8,2017.5,125,70,18.3
0.115000,515.4,853.1,900.5,381.4,2024.1,623.9,452.9,914.6,2029.3,124.9,70,18.4
0.117000,492.5,758.6,940.9,365.1,2045.1,604.8,438.7,930.3,2041.1,124.8,70,17.9
0.119000,472.6,715.8,969.1,334.7,2059.4,585.9,423.3,946.3,2052.7,124.7,70,16.9
0.121000,456.7,733.6,980.6,303.6,2071.6,591.9,407.4,962.2,2063.7,124.6,70,15.6
0.123000,428.4,804.5,984.7,275.2,2085.2,615.4,391.4,977.5,2073.8,124.5,70,14.4
0.125000,379.1,899.0,989.6,254.4,2096.3,614.1,376.3,991.5,2082.7,124.4,69.9,13.4
0.127000,343.1,923.3,999.4,237.1,2096.3,555.5,362.6,1003.9,2090.3,124.3,69.9,12.8
0.129000,338.5,867.6,1010.7,213.9,2091.7,481.7,351.2,1014,2096.3,124.2,69.7,12.2
0.131000,327.8,811.0,1019.5,189.7,2091.8,418.8,342.5,1021.6,2100.8,124.1,69.6,11.7
0.133000,295.8,786.7,1026.1,182.0,2096.0,359.8,337.2,1026.3,2103.4,124.1,69.4,11.4
0.135000,264.3,776.3,1033.6,207.2,2099.6,307.2,335.3,1027.8,2104.3,124,69.2,11.2
