time,f1,b1,f2,b2,f3,b3,f1p,f2p,f3p,f0,intensity,harmonicity
0.025989,230.4,313.3,1768.8,51.2,2561.5,212.9,280,1746.3,2493.5,126,40.3,-0.3
0.027989,262.8,157.1,1758.1,68.0,2529.7,200.8,284.5,1740.7,2490.5,125.8,42.4,-1.2
0.029989,292.9,115.3,1744.2,110.7,2501.9,213.6,291.7,1731.7,2485.4,125.7,44.2,-2.3
0.031989,318.3,95.1,1723.5,143.3,2459.5,223.5,301.1,1719.7,2478.3,125.5,45.7,-3
0.033989,335.9,72.8,1695.8,156.5,2419.9,231.6,312.2,1705.2,2469.1,125.3,46.9,-3
0.035989,348.6,56.8,1668.4,152.7,2396.0,233.7,324.3,1688.9,2457.8,125.1,47.8,-1.8
0.037989,357.4,50.6,1646.7,144.5,2388.9,247.6,336.8,1671.5,2444.6,124.9,48.6,0.7
0.039989,364.0,49.9,1627.8,141.3,2395.5,315.6,348.8,1653.5,2429.7,124.7,49.2,4.1
0.041989,368.3,49.4,1617.2,140.9,2418.1,487.9,359.8,1635.5,2413.3,124.5,49.7,7.6
0.043989,371.2,46.4,1615.2,138.5,2450.0,799.5,369.3,1618,2395.9,124.3,50,10.5
0.045989,372.6,40.8,1610.2,140.9,2399.6,845.0,376.8,1601.1,2378,124,50.3,12.4
0.047989,373.0,36.7,1594.9,149.0,2359.0,519.5,382.1,1585.1,2360.3,123.8,50.5,13.6
0.049989,372.9,35.8,1575.8,154.6,2347.8,316.2,385.1,1569.9,2343.4,123.5,50.6,14.3
0.051989,372.6,35.9,1561.6,154.7,2344.0,230.1,385.9,1555.3,2327.9,123.2,50.7,14.8
0.053989,372.4,37.8,1551.7,155.9,2337.6,192.0,384.7,1541,2314.5,122.9,50.7,15.1
0.055989,372.3,46.7,1538.9,171.0,2321.2,181.8,381.9,1526.7,2303.9,122.6,50.7,15.6
0.057989,372.2,63.8,1519.8,194.5,2296.3,186.1,377.7,1511.8,2296.3,122.3,50.6,15.9
0.059989,371.4,79.6,1497.2,206.6,2273.7,187.0,372.8,1496,2292,122,50.4,16.1
0.061989,369.7,82.7,1479.3,201.8,2267.4,177.8,367.4,1479.1,2291.1,121.6,50.3,16.2
0.063989,367.1,74.7,1464.0,191.5,2277.0,156.8,362,1460.6,2293.3,121.3,50.1,16.2
0.065989,363.0,60.9,1445.2,185.7,2296.9,121.8,357,1440.5,2298.3,120.9,50,16.1
0.067989,358.7,49.5,1421.3,190.2,2314.4,88.4,352.5,1418.9,2305.5,120.5,49.8,15.8
0.069989,354.7,42.1,1391.7,197.1,2325.7,65.3,348.7,1395.9,2314.2,120.1,49.6,15.4
0.071989,351.7,38.2,1362.1,196.8,2331.2,53.4,345.6,1371.8,2323.6,119.6,49.4,14.9
0.073989,349.0,36.8,1332.6,194.5,2333.7,48.3,343.3,1347.2,2332.9,119.2,49.2,14.7
0.075989,345.7,37.0,1305.7,192.9,2335.1,45.6,341.5,1322.4,2341.3,118.7,48.9,14.6
0.077989,342.3,37.6,1286.7,188.6,2338.2,42.7,340.1,1298.1,2348.3,118.3,48.6,14.9
0.079989,338.9,38.6,1270.6,179.9,2344.2,39.9,338.8,1274.8,2353.5,117.8,48.2,15.3
0.081989,336.0,40.3,1251.3,165.0,2351.9,39.2,337.5,1253,2356.5,117.2,47.8,15.7
0.083989,333.1,40.8,1233.3,146.6,2356.8,40.7,336.1,1233.3,2357.6,116.7,47.3,15.9
0.085989,329.3,39.3,1220.4,129.0,2356.2,41.5,334.3,1215.8,2357.1,116.2,46.7,15.8
0.087989,325.5,38.2,1212.2,118.8,2353.1,41.6,332.1,1200.7,2355.4,115.6,46.1,15.6
0.089989,322.4,39.2,1203.1,114.7,2351.7,44.2,329.5,1188.2,2353.5,115.1,45.5,15.2
0.091989,320.6,41.5,1191.0,109.3,2354.8,49.3,326.6,1178.1,2352.1,114.5,44.8,14.7
0.093989,319.5,42.2,1181.9,99.8,2362.4,50.7,323.5,1170.2,2352.2,114,44.1,14.1
0.095989,317.8,42.7,1176.9,93.1,2372.3,46.3,320.4,1164.2,2354.6,113.4,43.4,13.3
0.097989,316.4,45.8,1171.7,95.4,2381.0,43.1,317.5,1159.8,2360.2,112.9,42.6,12.2
0.099989,316.5,51.0,1160.2,102.5,2388.1,45.1,315,1156.5,2369.5,112.3,41.9,10.9
0.101989,317.8,54.4,1143.5,102.3,2392.9,51.6,312.9,1154,2382.7,111.8,41.1,9.8
0.103989,318.5,55.1,1132.3,93.3,2396.4,60.5,311.5,1152,2399.8,111.2,40.3,9.1
0.105989,317.6,58.8,1127.9,87.6,2403.0,75.5,310.8,1150.2,2420.4,110.7,39.5,9.2
0.107989,315.8,69.0,1127.7,93.1,2416.2,105.0,310.8,1148.4,2443.7,110.2,38.7,10
0.109989,315.7,81.5,1130.6,109.4,2439.6,166.5,311.5,1146.6,2468.9,109.7,37.9,11.2
0.111989,318.5,86.1,1138.9,125.2,2476.1,264.1,312.6,1144.6,2494.6,109.2,37.1,12.6
0.113989,319.5,85.0,1149.3,124.4,2512.5,329.6,314,1142.6,2519.6,108.8,36.5,13.9
0.115989,315.8,87.6,1154.3,111.7,2535.3,341.9,315.5,1140.6,2542.4,108.4,36,14.9
0.117989,311.1,94.1,1149.7,99.4,2543.9,359.3,317,1138.9,2561.7,108,35.6,16
0.119989,311.0,97.7,1141.8,92.6,2555.3,427.4,318.2,1137.6,2576.4,107.6,35.3,17.1
0.121989,314.2,99.7,1139.3,93.2,2591.5,550.3,319,1136.7,2585.6,107.3,35.1,17.9
0.123989,315.2,108.0,1143.4,103.4,2674.5,679.3,319.3,1136.4,2588.8,106.9,35,18.4
