time,f1,b1,f2,b2,f3,b3,f1p,f2p,f3p,f0,intensity,harmonicity
0.025989,606.8,134.1,2158.0,387.4,3067.1,215.7,674,2060.6,3064.6,231.6,58.7,3.4
0.027989,642.9,127.1,2162.2,366.6,3077.4,228.6,675.1,2060.1,3064.4,231.7,58.9,4.3
0.029989,666.0,106.8,2157.7,356.2,3091.9,246.0,677,2059.3,3063.9,231.8,59.2,5.3
0.031989,680.3,87.5,2151.1,349.0,3105.1,258.0,679.6,2058.2,3063.4,232,59.6,6.3
0.033989,690.6,73.6,2143.7,342.7,3109.5,261.0,682.9,2056.8,3062.7,232.1,60.2,7.5
0.035989,698.8,63.5,2132.9,337.9,3103.9,261.5,686.9,2055.1,3061.8,232.3,60.8,8.8
0.037989,705.1,56.7,2117.1,336.0,3092.8,263.2,691.6,2053.1,3060.8,232.4,61.4,10.4
0.039989,710.2,52.7,2096.9,338.4,3081.3,265.3,696.9,2050.8,3059.7,232.6,62,12.2
0.041989,715.0,51.1,2073.4,343.1,3071.8,264.1,702.7,2048.3,3058.5,232.8,62.5,13.9
0.043989,719.9,51.3,2048.0,345.7,3063.0,258.8,709.1,2045.5,3057.2,233,62.9,15.3
0.045989,725.0,52.8,2022.1,344.2,3053.5,252.7,716,2042.5,3055.8,233.2,63.3,16.3
0.047989,730.2,55.3,1996.9,339.3,3044.4,249.2,723.3,2039.3,3054.4,233.4,63.6,16.9
0.049989,735.9,58.9,1973.5,332.8,3037.5,249.6,731.1,2035.9,3053,233.6,63.7,17.2
0.051989,741.9,63.1,1954.1,326.1,3032.3,253.0,739.1,2032.3,3051.5,233.8,63.8,17.5
0.053989,749.0,68.3,1938.5,319.4,3025.4,257.9,747.5,2028.6,3050,234,63.9,17.8
0.055989,757.1,74.1,1928.7,312.1,3015.3,261.3,756,2024.7,3048.6,234.3,63.8,18.3
0.057989,766.2,80.5,1924.8,304.2,3004.3,261.3,764.8,2020.8,3047.2,234.5,63.7,18.9
0.059989,775.7,87.0,1925.9,300.6,2998.5,260.8,773.6,2016.8,3045.9,234.8,63.6,19.6
0.061989,785.5,93.2,1930.4,303.3,3002.1,260.0,782.5,2012.7,3044.6,235,63.5,20.2
0.063989,795.2,98.0,1935.5,309.2,3012.0,258.6,791.4,2008.6,3043.5,235.3,63.3,20.7
0.065989,804.5,100.6,1937.7,310.9,3020.8,256.2,800.2,2004.4,3042.4,235.5,63.2,21
0.067989,813.5,101.1,1937.3,300.9,3024.7,250.5,808.9,2000.3,3041.6,235.8,63.1,21.2
0.069989,822.7,100.3,1937.1,281.3,3025.5,242.0,817.5,1996.2,3040.8,236,63,21.2
0.071989,831.5,98.8,1938.6,263.3,3026.7,237.0,825.8,1992.2,3040.3,236.3,63,21.2
0.073989,839.1,97.2,1941.5,254.4,3028.3,240.1,833.8,1988.2,3039.9,236.6,63,21
0.075989,845.1,95.9,1944.6,254.6,3027.3,249.5,841.6,1984.3,3039.7,236.9,63,20.7
0.077989,850.8,95.0,1947.8,259.5,3023.8,259.4,849,1980.6,3039.7,237.1,63,20.1
0.079989,856.8,94.1,1951.1,264.5,3021.4,265.7,856,1976.9,3040,237.4,63,19.3
0.081989,863.1,92.7,1954.7,267.7,3021.1,271.9,862.6,1973.4,3040.4,237.6,63,18.6
0.083989,869.2,90.7,1958.9,269.7,3021.4,281.9,868.7,1970,3041.1,237.9,63,18.2
0.085989,874.2,88.5,1963.2,274.5,3021.9,297.1,874.4,1966.8,3042,238.1,63,18.4
0.087989,877.8,86.8,1967.8,285.6,3026.2,312.3,879.7,1963.8,3043.1,238.4,63.1,19.2
0.089989,881.5,85.4,1973.5,295.5,3035.6,311.8,884.4,1960.9,3044.5,238.6,63.1,20.4
0.091989,886.2,83.4,1980.7,296.2,3045.4,291.5,888.7,1958.3,3046.1,238.8,63.2,21.7
0.093989,890.9,81.0,1988.0,293.0,3054.6,267.8,892.5,1955.8,3047.9,239,63.2,22.8
0.095989,894.6,78.9,1993.6,291.0,3064.9,248.9,895.7,1953.6,3049.9,239.1,63.2,23.7
0.097989,897.0,77.8,1996.6,290.2,3076.4,234.4,898.5,1951.5,3052.2,239.3,63.2,24.6
0.099989,898.9,77.6,1997.1,287.2,3088.5,221.1,900.8,1949.7,3054.6,239.4,63.2,25.4
0.101989,900.6,77.7,1995.8,280.0,3097.8,209.2,902.7,1948,3057.2,239.5,63.2,26.1
0.103989,901.9,77.7,1993.6,272.3,3103.5,201.0,904.1,1946.6,3060,239.5,63.2,26.7
0.105989,902.6,77.3,1992.0,269.3,3106.3,198.0,905.1,1945.3,3063,239.6,63.2,27.2
0.107989,902.8,76.4,1992.1,271.3,3107.0,196.6,905.7,1944.3,3066.1,239.6,63.1,27.4
0.109989,903.1,75.3,1993.5,273.4,3106.7,191.5,906,1943.5,3069.4,239.6,63.1,27.6
0.111989,903.8,73.9,1994.1,271.1,3106.8,181.5,905.9,1942.8,3072.7,239.5,63.1,27.6
0.113989,904.7,72.4,1992.8,264.6,3108.0,169.3,905.6,1942.3,3076.2,239.4,63.1,27.7
0.115989,905.7,71.2,1990.4,258.3,3109.3,158.5,904.9,1942.1,3079.8,239.3,63.1,27.8
0.117989,906.1,70.6,1988.4,255.4,3110.4,151.4,904.1,1941.9,3083.4,239.2,63.1,27.9
0.119989,905.8,70.8,1986.9,254.8,3111.2,148.2,903.1,1942,3087.1,239,63.1,28
0.121989,905.1,71.4,1985.2,252.9,3112.0,147.0,901.9,1942.2,3090.9,238.8,63.1,28
0.123989,904.2,72.2,1982.2,249.7,3112.8,146.5,900.6,1942.5,3094.7,238.5,63.1,27.9
0.125989,903.4,72.9,1977.4,246.5,3113.7,145.7,899.3,1943,3098.5,238.2,63.1,27.5
0.127989,902.5,73.3,1971.3,241.8,3115.3,143.5,897.9,1943.7,3102.3,237.9,63.1,27
0.129989,901.2,73.5,1964.6,234.9,3116.7,141.2,896.5,1944.4,3106.1,237.5,63,26.3
0.131989,899.4,73.9,1958.0,227.3,3116.0,142.2,895.1,1945.3,3109.9,237.1,63,25.5
0.133989,897.1,75.0,1951.9,220.8,3111.2,148.8,893.8,1946.2,3113.6,236.7,63,24.6
0.135989,894.6,76.9,1946.3,215.1,3100.9,161.8,892.6,1947.3,3117.3,236.2,62.9,23.7
0.137989,892.1,79.1,1940.8,208.1,3083.5,179.4,891.6,1948.4,3121,235.7,62.9,22.7
0.139989,889.7,81.6,1935.9,199.8,3061.3,195.1,890.6,1949.7,3124.6,235.1,62.9,21.6
0.141989,887.1,84.3,1932.3,192.7,3045.5,201.5,889.8,1951,3128.2,234.6,62.8,20.5
0.143989,884.5,87.3,1929.9,188.5,3045.2,198.7,889.3,1952.4,3131.6,233.9,62.8,19.5
0.145989,881.8,90.6,1926.7,186.4,3057.4,191.6,888.9,1953.8,3135,233.3,62.7,18.7
0.147989,879.5,93.8,1921.6,184.2,3074.5,184.7,888.7,1955.3,3138.4,232.6,62.7,18
0.149989,877.5,97.1,1914.9,180.8,3091.9,181.0,888.7,1956.9,3141.6,231.9,62.6,17.4
0.151989,875.1,101.0,1907.3,178.9,3108.7,184.1,888.9,1958.5,3144.8,231.1,62.4,16.9
0.153989,871.9,106.2,1898.7,183.5,3127.4,194.8,889.3,1960.2,3148,230.4,62.3,16.4
0.155989,867.7,112.9,1888.9,196.9,3149.7,209.2,890,1961.9,3151,229.6,62.1,15.9
0.157989,863.8,121.2,1878.8,217.3,3172.3,221.0,890.9,1963.7,3154,228.7,61.9,15.4
0.159989,862.2,131.6,1872.2,239.1,3189.5,225.2,891.9,1965.5,3156.9,227.9,61.7,14.9
0.161989,864.2,144.8,1873.7,256.7,3197.6,218.8,893.2,1967.3,3159.7,227,61.5,14.5
0.163989,870.3,160.8,1884.4,267.1,3197.8,203.3,894.6,1969.2,3162.5,226.1,61.2,14.2
0.165989,878.9,177.4,1900.2,269.8,3194.5,186.9,896.1,1971.2,3165.2,225.2,61,14
0.167989,889.9,193.5,1917.5,266.1,3190.0,174.9,897.8,1973.1,3167.9,224.3,60.9,14.1
0.169989,902.5,205.9,1933.9,258.3,3184.6,170.9,899.5,1975.1,3170.5,223.3,60.7,14.2
0.171989,915.5,213.6,1950.3,249.8,3178.8,175.6,901.4,1977.2,3173.1,222.4,60.6,14.3
0.173989,927.7,217.5,1967.2,244.0,3174.2,187.8,903.2,1979.2,3175.6,221.4,60.5,14.3
0.175989,937.9,218.9,1984.9,243.9,3174.1,204.6,905.2,1981.4,3178.1,220.5,60.4,14.1
0.177989,945.8,218.6,2003.7,251.8,3180.5,220.9,907,1983.5,3180.6,219.5,60.4,13.8
0.179989,951.3,217.2,2023.9,268.1,3191.7,230.8,908.9,1985.7,3183,218.6,60.3,13.3
0.181989,955.2,214.0,2044.5,289.1,3202.3,229.5,910.7,1987.9,3185.4,217.6,60.3,12.8
0.183989,958.0,208.2,2063.0,308.4,3207.8,219.6,912.4,1990.1,3187.8,216.7,60.3,12.4
0.185989,958.5,201.3,2075.9,323.6,3208.7,209.1,913.9,1992.4,3190.1,215.7,60.3,12.1
0.187989,956.4,195.9,2080.8,333.2,3208.2,201.5,915.3,1994.6,3192.4,214.8,60.3,11.8
0.189989,951.8,192.8,2078.2,334.6,3209.2,193.9,916.5,1996.9,3194.7,213.9,60.3,11.7
0.191989,945.6,192.4,2069.0,323.4,3212.0,184.7,917.5,1999.3,3196.9,213,60.3,11.5
0.193989,938.4,193.5,2056.1,301.1,3213.2,175.4,918.3,2001.6,3199,212.1,60.3,11.5
0.195989,930.8,195.5,2043.1,275.3,3210.6,168.7,918.8,2003.9,3201.1,211.3,60.3,11.5
0.197989,922.9,198.2,2032.8,253.9,3206.7,165.6,919,2006.3,3203.2,210.5,60.3,11.6
0.199989,914.2,201.9,2026.3,239.7,3206.9,165.3,918.9,2008.6,3205.2,209.7,60.3,11.8
0.201989,905.1,205.4,2022.8,230.9,3212.8,164.7,918.5,2010.9,3207.1,208.9,60.3,12
0.203989,896.6,206.7,2021.0,223.9,3220.5,160.3,917.8,2013.2,3208.9,208.2,60.3,12.3
0.205989,889.8,205.5,2020.4,216.1,3225.1,152.1,916.7,2015.5,3210.6,207.5,60.3,12.6
0.207989,884.7,203.3,2020.8,207.1,3224.7,143.0,915.2,2017.8,3212.2,206.8,60.3,13
0.209989,880.7,201.9,2021.7,197.9,3220.3,135.7,913.4,2020,3213.7,206.2,60.3,13.4
0.211989,877.4,201.6,2022.2,189.7,3214.2,131.2,911.3,2022.2,3215.1,205.6,60.2,13.9
0.213989,874.2,201.4,2022.2,182.5,3208.9,129.2,908.7,2024.3,3216.3,205,60.2,14.5
0.215989,871.5,201.0,2022.2,176.9,3206.3,130.5,905.8,2026.4,3217.4,204.5,60.2,15.2
0.217989,869.3,200.9,2022.5,173.7,3206.1,135.1,902.6,2028.4,3218.3,204,60.2,16.2
0.219989,867.6,202.1,2023.4,173.1,3207.4,142.1,899,2030.3,3219,203.5,60.1,17.2
0.221989,866.5,204.5,2024.8,174.4,3208.8,149.1,895,2032.1,3219.6,203.1,60.1,18.3
0.223989,865.7,207.6,2026.2,176.0,3208.9,153.4,890.8,2033.9,3220,202.7,60,19.2
0.225989,864.7,210.6,2027.0,177.2,3208.0,154.4,886.2,2035.6,3220.1,202.4,60,19.8
0.227989,863.2,213.4,2027.3,178.7,3206.8,154.2,881.3,2037.1,3220.1,202.1,59.9,20.1
0.229989,861.2,216.1,2027.7,181.7,3205.5,155.0,876.1,2038.6,3219.8,201.8,59.8,20.4
0.231989,858.8,218.9,2029.1,186.6,3203.8,156.8,870.7,2039.9,3219.4,201.6,59.7,20.5
0.233989,856.7,221.9,2031.6,191.7,3201.2,157.7,865.1,2041.1,3218.7,201.4,59.6,20.6
0.235989,855.2,226.2,2035.0,195.7,3197.6,155.5,859.2,2042.2,3217.7,201.2,59.5,20.8
0.237989,854.2,231.9,2038.2,198.2,3194.3,151.1,853.1,2043.2,3216.6,201.1,59.4,20.9
0.239989,852.6,238.8,2040.1,200.5,3192.4,148.0,846.9,2044,3215.2,201,59.3,20.9
0.241989,849.6,246.2,2040.3,203.5,3192.6,148.9,840.5,2044.8,3213.6,200.9,59.2,20.9
0.243989,845.1,253.1,2039.3,206.2,3194.8,154.3,834,2045.4,3211.8,200.8,59.1,21.2
0.245989,840.0,259.0,2038.2,206.8,3198.5,162.7,827.5,2045.9,3209.8,200.8,59,21.9
0.247989,835.6,264.4,2037.7,204.4,3202.0,171.4,820.8,2046.2,3207.6,200.8,58.9,23.2
0.249989,831.8,269.3,2038.1,200.1,3203.6,178.3,814.2,2046.4,3205.2,200.8,58.8,24.8
0.251989,828.0,273.6,2038.6,195.3,3203.0,182.5,807.5,2046.6,3202.6,200.8,58.7,26.2
0.253989,823.9,276.5,2038.2,190.8,3201.9,183.7,800.9,2046.6,3199.8,200.9,58.6,27
0.255989,819.4,278.2,2036.7,187.3,3201.8,183.4,794.3,2046.4,3196.9,201,58.5,26.8
0.257989,813.9,279.7,2034.4,185.9,3203.1,184.6,787.8,2046.2,3193.9,201.1,58.4,25.5
0.259989,807.5,281.6,2032.0,187.1,3204.9,189.3,781.4,2045.9,3190.8,201.2,58.3,23.7
0.261989,800.4,283.3,2029.2,189.0,3205.9,196.0,775.1,2045.6,3187.6,201.3,58.3,21.6
0.263989,792.9,283.0,2026.3,188.7,3205.4,201.4,768.9,2045.1,3184.3,201.4,58.2,20
0.265989,785.3,279.7,2023.5,185.6,3203.8,204.2,762.9,2044.6,3180.9,201.5,58.1,19
0.267989,777.2,274.1,2021.2,181.7,3201.9,206.0,757.1,2044,3177.5,201.7,58.1,18.3
0.269989,768.2,267.5,2019.0,179.6,3200.8,208.3,751.5,2043.4,3174.2,201.8,58,18
0.271989,758.7,261.4,2017.5,180.1,3199.8,208.4,746.2,2042.7,3170.8,202,58,17.8
0.273989,750.6,257.8,2018.3,180.4,3196.1,200.2,741,2042,3167.5,202.1,58,17.9
0.275989,744.5,256.9,2022.1,177.8,3189.0,183.9,736.2,2041.3,3164.3,202.3,57.9,18
0.277989,739.6,257.0,2027.6,172.2,3180.9,167.0,731.6,2040.5,3161.2,202.4,57.9,18.5
0.279989,735.6,256.2,2032.5,165.2,3174.3,155.6,727.3,2039.8,3158.2,202.6,57.8,19.2
0.281989,731.7,253.7,2036.5,157.6,3169.6,150.0,723.3,2039.1,3155.3,202.7,57.8,19.9
0.283989,728.3,250.5,2039.4,150.7,3165.7,149.0,719.6,2038.4,3152.6,202.8,57.7,20.6
0.285989,724.8,248.0,2041.9,145.4,3160.0,151.6,716.2,2037.8,3150.1,203,57.7,21.2
0.287989,719.8,246.7,2044.0,143.3,3151.9,158.1,713.2,2037.2,3147.8,203.1,57.6,21.8
0.289989,712.5,246.3,2046.5,145.3,3144.0,168.1,710.5,2036.6,3145.8,203.2,57.6,22.4
0.291989,703.6,246.1,2050.0,150.4,3138.5,179.3,708.1,2036.1,3143.9,203.4,57.5,22.9
0.293989,694.4,245.8,2054.5,156.2,3133.6,188.7,706.1,2035.7,3142.3,203.5,57.4,23.3
0.295989,685.0,245.6,2059.2,162.0,3126.7,196.4,704.5,2035.4,3141,203.6,57.3,23.4
0.297989,675.1,246.1,2063.4,169.1,3118.0,204.8,703.2,2035.1,3140,203.7,57.2,23.4
0.299989,665.9,247.3,2066.8,178.0,3109.4,214.4,702.3,2034.9,3139.3,203.8,57.1,23.2
0.301989,658.5,249.4,2069.2,187.0,3101.5,223.7,701.7,2034.7,3138.8,203.8,56.9,22.9
0.303989,651.1,253.1,2070.1,195.7,3091.5,234.4,701.6,2034.7,3138.7,203.9,56.7,22.3
