time,f1,b1,f2,b2,f3,b3,f1p,f2p,f3p,f0,intensity,harmonicity
0.025000,463.6,61.0,2333.5,181.1,3209.6,336.5,461.1,2337.7,3188.3,196.6,53.6,-0.5
0.027000,463.8,71.8,2334.7,167.8,3193.9,328.7,463.9,2339.9,3188.9,196.5,53.6,0.5
0.029000,464.0,94.7,2341.2,157.7,3184.2,317.0,468.5,2343.5,3189.7,196.3,53.4,2.2
0.031000,467.9,127.5,2352.0,151.9,3181.9,299.2,474.6,2348.5,3190.7,196,53.1,4.2
0.033000,477.8,152.3,2363.7,152.0,3183.0,280.9,481.9,2354.6,3191.6,195.7,52.7,6.2
0.035000,490.6,156.5,2373.3,160.9,3184.3,269.5,490,2361.9,3192.2,195.4,52.4,8.1
0.037000,502.1,149.5,2379.8,182.7,3185.8,267.2,498.6,2370,3192.3,195.1,52.2,9.8
0.039000,511.9,142.3,2383.9,214.8,3188.9,264.8,507.3,2378.7,3191.8,194.8,52.1,11.7
0.041000,520.5,139.1,2386.3,242.4,3193.4,249.3,515.7,2388,3190.6,194.5,52,13.5
0.043000,527.9,138.3,2387.6,251.4,3196.0,225.7,523.6,2397.4,3188.6,194.1,52,14.9
0.045000,533.6,138.0,2389.8,238.5,3194.2,207.3,530.7,2406.8,3186,193.8,52,15.9
0.047000,538.2,138.8,2396.4,212.1,3187.9,199.5,537,2415.9,3182.9,193.4,51.9,16.2
0.049000,542.0,139.7,2407.9,192.5,3178.4,205.3,542.3,2424.4,3179.6,193,51.9,16
0.051000,544.7,140.4,2423.7,191.1,3169.1,223.7,546.7,2432.3,3176.3,192.6,51.8,15.4
0.053000,547.8,144.8,2442.7,201.1,3163.9,239.9,550.4,2439.2,3173.4,192.2,51.8,15
0.055000,552.7,156.7,2461.3,208.8,3165.2,238.7,553.5,2445,3171.2,191.8,51.7,14.8
0.057000,558.2,174.1,2473.9,213.5,3170.7,228.4,556.1,2449.6,3169.9,191.3,51.6,15.2
0.059000,561.5,191.4,2477.3,224.4,3175.9,224.9,558.7,2452.9,3169.8,190.9,51.6,15.9
0.061000,561.5,206.1,2472.4,242.2,3178.2,230.4,561.3,2455,3170.8,190.5,51.4,16.6
0.063000,560.7,219.7,2462.0,254.9,3178.4,237.1,564.2,2455.8,3173.1,190,51.4,17.3
0.065000,560.9,232.1,2450.4,255.4,3179.4,246.6,567.5,2455.5,3176.4,189.5,51.3,17.6
0.067000,562.4,242.7,2439.8,246.8,3182.5,267.6,571.4,2454.1,3180.5,189.1,51.1,17.5
0.069000,566.4,257.3,2432.7,231.4,3187.8,298.5,575.9,2451.8,3185.1,188.6,51,17.1
0.071000,573.7,280.7,2430.5,214.6,3192.2,327.4,580.9,2448.8,3189.7,188.1,50.8,16.6
0.073000,584.1,311.7,2432.4,203.6,3192.4,344.8,586.3,2445.3,3193.8,187.7,50.7,16.1
0.075000,597.0,341.6,2436.3,200.0,3190.8,352.0,591.9,2441.4,3197,187.2,50.5,15.9
0.077000,611.2,361.7,2439.2,197.9,3190.8,353.5,597.4,2437.3,3198.8,186.7,50.5,16
0.079000,620.9,365.8,2439.1,197.4,3193.1,359.6,602.7,2433.2,3199,186.3,50.4,16.2
0.081000,622.0,357.3,2436.1,201.4,3194.2,371.5,607.5,2429.2,3197.3,185.8,50.4,16.5
0.083000,618.8,347.6,2430.6,207.8,3189.7,373.3,611.5,2425.3,3193.6,185.3,50.4,16.9
0.085000,617.7,346.9,2424.7,211.2,3182.4,351.4,614.4,2421.5,3188.1,184.9,50.4,17.2
0.087000,618.4,354.1,2421.3,214.8,3177.9,320.8,616,2417.9,3181,184.5,50.3,17.4
0.089000,614.0,359.7,2420.6,231.0,3176.1,306.6,616.3,2414.3,3172.7,184,50.3,17.5
0.091000,603.1,359.2,2420.1,265.0,3173.3,315.9,615.2,2410.8,3163.7,183.6,50.3,17.7
0.093000,594.6,358.9,2416.5,299.9,3165.7,334.8,612.6,2407.1,3154.7,183.2,50.2,17.8
0.095000,592.3,362.5,2408.2,314.9,3154.1,349.6,608.6,2403.3,3146.4,182.9,50.2,17.9
0.097000,591.6,362.5,2396.7,314.0,3142.3,363.0,603.4,2399.2,3139.2,182.5,50.1,17.8
0.099000,588.5,355.7,2384.6,310.9,3134.1,382.0,597.2,2394.8,3133.7,182.1,50.1,17.6
0.101000,584.1,349.0,2374.6,310.2,3131.4,406.0,590.1,2390,3130.5,181.8,50,17.4
0.103000,581.1,350.4,2369.4,312.1,3133.1,425.1,582.4,2384.8,3129.7,181.5,50,17.3
0.105000,579.9,361.4,2369.3,317.8,3135.0,430.3,574.3,2379.2,3131.3,181.2,50,17.4
0.107000,579.1,375.7,2371.7,327.0,3134.3,424.1,566.2,2373.4,3135.4,180.9,50,17.9
0.109000,577.0,384.0,2373.1,334.9,3134.3,417.3,558.2,2367.4,3141.6,180.7,49.9,18.7
0.111000,572.2,382.1,2371.8,338.1,3139.2,421.0,550.7,2361.4,3149.4,180.5,49.9,19.5
0.113000,563.5,368.9,2367.5,340.6,3148.1,445.4,543.8,2355.7,3158.2,180.2,49.9,20.2
0.115000,549.9,344.3,2360.3,348.1,3155.1,501.6,537.6,2350.4,3167.4,180,49.8,20.5
0.117000,535.4,316.9,2351.2,353.0,3157.2,585.3,532.4,2345.7,3176.1,179.9,49.8,20.4
0.119000,524.0,299.5,2342.8,336.9,3163.0,662.5,528.2,2341.8,3183.8,179.7,49.7,20
0.121000,515.2,298.4,2336.6,296.6,3184.9,690.7,525.2,2338.9,3189.7,179.5,49.6,19.4
0.123000,507.6,313.5,2331.3,248.7,3215.6,664.7,523.4,2337.1,3193.5,179.4,49.6,18.7
0.125000,500.4,338.0,2326.8,212.1,3236.7,625.9,522.7,2336.4,3194.8,0,49.5,18.2
