time,f1,b1,f2,b2,f3,b3,f1p,f2p,f3p,f0,intensity,harmonicity
0.026000,356.1,70.9,1111.5,260.0,2323.7,78.4,357.7,1064.6,2421.7,151.5,56.8,17.5
0.028000,357.7,73.2,1091.1,279.5,2359.4,76.2,357.8,1061.1,2423.8,151.6,56.8,18.9
0.030000,359.6,78.3,1064.0,322.0,2393.3,75.3,357.9,1055.3,2427.2,151.7,56.7,20.6
0.032000,361.0,84.1,1028.9,348.6,2426.4,72.2,358,1047.4,2431.9,151.9,56.7,22.2
0.034000,361.0,84.0,1004.9,320.2,2452.5,67.5,358.1,1037.4,2437.8,152,56.7,23.6
0.036000,360.1,77.3,996.6,260.9,2471.8,64.5,358.3,1025.6,2444.9,152.1,56.6,24.2
0.038000,358.8,70.3,995.3,212.4,2484.7,66.6,358.4,1012.1,2453,152.2,56.6,24.4
0.040000,357.8,65.3,994.2,182.3,2496.3,76.0,358.4,997.2,2462.1,152.3,56.6,24.2
0.042000,357.1,62.4,992.3,170.3,2507.9,91.5,358.4,981.1,2472,152.5,56.6,24
0.044000,356.3,61.5,987.7,170.6,2519.4,109.0,358.3,964.1,2482.6,152.6,56.6,23.7
0.046000,355.5,62.8,976.6,184.9,2529.6,122.9,358,946.4,2493.7,152.7,56.6,23.7
0.048000,355.4,65.7,957.3,213.2,2537.6,127.8,357.7,928.4,2505.3,152.9,56.6,23.8
0.050000,355.5,71.0,926.4,255.2,2544.3,123.1,357.1,910.3,2517.2,153,56.5,23.9
0.052000,355.7,79.0,888.0,300.6,2549.1,109.3,356.4,892.3,2529.3,153.2,56.5,24
0.054000,356.2,88.3,847.5,342.7,2553.9,91.4,355.6,874.9,2541.5,153.3,56.5,24.2
0.056000,356.5,95.2,818.3,369.5,2560.1,79.2,354.5,858.1,2553.5,153.5,56.5,24.5
0.058000,355.5,100.1,800.4,377.5,2568.6,76.1,353.2,842.2,2565.4,153.6,56.4,25
0.060000,353.6,102.4,791.6,367.9,2577.1,82.0,351.8,827.5,2577.1,153.8,56.4,25.5
0.062000,350.9,102.6,788.5,347.9,2582.5,96.7,350.2,814,2588.4,154,56.3,26
0.064000,347.9,103.3,788.2,329.2,2581.5,117.7,348.4,802,2599.3,154.1,56.3,26.4
0.066000,345.2,105.8,786.5,319.1,2578.3,141.4,346.5,791.4,2609.7,154.3,56.3,26.7
0.068000,343.1,106.5,783.6,311.6,2581.6,157.2,344.5,782.5,2619.7,154.5,56.3,26.8
0.070000,340.3,103.7,781.7,290.4,2593.5,165.0,342.3,775.2,2629.1,154.7,56.3,26.8
0.072000,337.2,99.9,780.2,262.1,2609.2,172.4,340.1,769.5,2638,154.9,56.2,26.8
0.074000,334.9,97.7,778.4,239.9,2627.8,188.3,337.9,765.4,2646.3,155.1,56.2,26.9
0.076000,333.5,98.2,777.5,226.0,2647.0,214.8,335.7,762.9,2654.1,155.3,56.2,27
0.078000,332.0,99.7,777.6,210.8,2666.5,250.8,333.5,761.7,2661.3,155.5,56.2,27.2
0.080000,330.6,98.9,778.9,192.2,2679.7,277.8,331.4,761.9,2668.1,155.7,56.2,27.4
0.082000,329.3,94.2,781.5,169.3,2682.7,281.7,329.5,763.3,2674.3,155.9,56.3,27.6
0.084000,327.9,89.1,783.6,148.6,2680.1,267.9,327.6,765.6,2680.1,156.1,56.3,27.6
0.086000,327.0,86.5,785.2,134.5,2682.6,253.0,326,768.8,2685.4,156.3,56.4,27.4
0.088000,326.7,86.8,787.3,126.9,2690.9,247.1,324.5,772.7,2690.4,156.5,56.4,26.9
0.090000,326.0,87.6,789.6,118.1,2699.8,247.4,323.3,777,2694.9,156.8,56.5,26.2
0.092000,325.1,85.5,790.8,105.9,2706.7,242.3,322.3,781.6,2699.1,157,56.5,25.6
0.094000,324.4,79.4,791.6,91.2,2713.2,220.2,321.6,786.3,2702.9,157.2,56.6,25.1
0.096000,323.7,71.2,792.1,76.3,2718.9,183.1,321.2,791,2706.4,157.5,56.6,25.1
0.098000,323.1,64.4,791.8,65.6,2721.1,149.9,321,795.4,2709.6,157.7,56.6,25.4
0.100000,323.0,59.5,791.8,59.2,2719.5,128.0,321.1,799.5,2712.4,157.9,56.7,26
0.102000,323.5,57.7,792.8,57.1,2716.3,119.6,321.5,803.2,2714.8,158.1,56.7,26.6
0.104000,324.2,58.5,794.1,57.4,2714.3,117.3,322.1,806.3,2716.9,158.3,56.8,26.9
0.106000,325.0,60.1,795.4,58.1,2715.2,114.6,323.1,808.7,2718.6,158.5,56.8,26.8
0.108000,326.0,61.6,796.8,57.5,2719.7,109.9,324.2,810.5,2719.9,158.7,56.9,26.3
0.110000,326.7,62.2,797.5,55.2,2725.4,105.4,325.7,811.7,2720.8,158.9,56.9,25.6
0.112000,327.7,61.6,797.8,52.0,2729.2,101.6,327.3,812.1,2721.2,159.1,57,24.8
0.114000,328.9,60.1,798.8,48.7,2729.2,99.6,329.2,812,2721.2,159.2,57,24.2
0.116000,330.2,58.0,799.8,45.4,2728.1,101.1,331.3,811.4,2720.7,159.4,57.1,23.8
0.118000,331.6,55.0,800.4,41.8,2728.0,108.4,333.6,810.3,2719.6,159.5,57.2,23.7
0.120000,333.2,50.8,801.4,37.7,2727.9,126.6,336.1,808.8,2718.1,159.6,57.2,23.7
0.122000,335.1,47.6,802.8,34.4,2724.8,158.3,338.8,807.2,2716.1,159.6,57.3,23.7
0.124000,337.8,47.1,804.6,32.2,2715.0,199.0,341.8,805.5,2713.6,159.6,57.3,23.5
0.126000,341.0,48.5,806.9,30.5,2701.0,223.7,345,804,2710.6,159.7,57.4,22.9
0.128000,344.7,49.9,809.2,28.2,2689.4,228.5,348.5,802.7,2707.2,159.6,57.4,22.2
0.130000,348.4,49.9,811.0,25.5,2684.7,224.9,352.2,801.8,2703.4,159.6,57.4,21.2
0.132000,352.0,48.2,813.1,22.5,2682.7,219.9,356.3,801.6,2699.2,159.5,57.3,20.1
0.134000,355.0,46.0,815.2,19.7,2678.7,215.9,360.8,802.2,2694.8,159.4,57.2,18.9
0.136000,358.7,43.7,816.5,17.3,2672.3,212.5,365.6,803.7,2690.3,159.2,56.9,17.7
0.138000,363.7,41.7,817.1,15.8,2668.0,206.6,370.9,806.3,2685.7,159.1,56.6,16.4
0.140000,370.6,40.9,817.6,15.6,2668.7,193.3,376.7,810.1,2681,158.9,56.3,14.9
0.142000,379.6,41.9,818.4,17.3,2671.4,177.4,382.9,815.3,2676.5,158.7,55.8,13.5
0.144000,391.4,44.1,819.8,21.9,2673.1,167.8,389.8,821.9,2672.3,158.4,55.4,12
0.146000,405.8,46.7,821.7,32.1,2673.7,168.4,397.3,830.1,2668.3,158.2,54.9,10.6
0.148000,419.8,48.1,824.0,50.4,2674.5,173.5,405.4,839.8,2664.8,157.9,54.3,9.2
0.150000,432.5,46.9,833.1,80.1,2675.9,178.4,414.2,851.1,2661.9,157.6,53.8,7.8
0.152000,441.2,42.3,863.3,99.0,2675.6,188.5,423.6,864,2659.6,157.3,53.2,6.4
0.154000,446.7,39.3,904.4,83.3,2672.2,209.2,433.8,878.5,2658,157,52.7,5.2
0.156000,451.9,42.2,925.7,63.8,2669.4,234.6,444.7,894.5,2657.2,156.7,52.2,4.1
0.158000,459.9,45.6,935.9,53.8,2675.1,228.8,456.2,911.9,2657.3,156.4,51.8,3.2
0.160000,469.6,44.2,943.7,50.4,2682.3,177.6,468.4,930.6,2658.4,156.1,51.4,2.4
0.162000,480.8,38.9,955.1,49.2,2683.1,126.7,481.3,950.5,2660.3,0,51.1,1.8
0.164000,492.2,32.5,970.4,45.7,2678.8,97.0,494.7,971.5,2663.2,0,50.8,1.2
0.166000,504.6,26.8,989.3,39.6,2671.4,79.4,508.6,993.3,2667,0,50.3,0.6
0.168000,517.7,26.3,1007.1,37.5,2664.2,74.3,522.9,1015.9,2671.7,0,49.8,0.2
0.170000,533.6,36.6,1025.3,48.4,2660.3,90.4,537.6,1038.9,2677.3,0,49.2,-0.2
0.172000,548.9,53.9,1047.9,70.8,2661.6,132.8,552.5,1062.2,2683.6,0,48.8,-0.5
0.174000,560.2,59.1,1078.8,82.5,2666.7,194.3,567.4,1085.6,2690.6,0,48.6,-0.6
0.176000,568.7,50.9,1105.0,72.0,2672.0,248.0,582.4,1108.9,2698.1,0,48.4,-0.7
0.178000,579.5,39.2,1124.1,53.4,2676.9,281.0,597.1,1131.7,2706,0,48.2,-0.7
0.180000,593.1,29.0,1138.0,37.8,2682.9,288.4,611.6,1154,2714.2,0,47.9,-0.6
0.182000,611.4,22.8,1153.0,28.7,2703.6,290.1,625.6,1175.4,2722.5,0,47.5,-0.4
0.184000,633.4,24.4,1170.9,30.0,2749.9,291.7,639,1195.8,2730.8,0,47,0
0.186000,657.1,31.2,1192.0,39.2,2782.8,264.0,651.7,1214.9,2738.9,0,46.7,0.6
0.188000,673.1,35.7,1211.7,49.4,2785.9,228.1,663.4,1232.6,2746.7,0,46.5,1.5
0.190000,682.6,34.9,1233.5,56.4,2772.2,197.8,674.2,1248.7,2754,0,46.5,2.6
0.192000,691.0,31.2,1259.1,55.0,2753.7,177.7,683.8,1262.9,2760.6,0,46.7,3.8
0.194000,701.2,27.7,1283.2,45.7,2743.0,163.2,692.1,1275.3,2766.5,0,46.9,4.7
0.196000,709.7,24.5,1299.6,35.0,2748.6,149.6,699.1,1285.5,2771.5,0,47.1,5.3
0.198000,712.3,20.9,1309.7,27.1,2764.0,134.1,704.6,1293.6,2775.4,0,47.2,5.7
0.200000,711.0,16.6,1318.2,20.7,2780.2,114.8,708.5,1299.5,2778.3,0,47.1,5.9
0.202000,708.7,13.0,1326.7,16.7,2792.4,99.6,710.9,1303,2780.1,0,46.8,6.1
0.204000,707.4,12.0,1338.8,16.7,2800.9,100.4,711.7,1304.2,2780.7,0,46.4,6.3
