time,f1,b1,f2,b2,f3,b3,f1p,f2p,f3p,f0,intensity,harmonicity
0.026000,651.4,50.2,1394.8,87.2,2124.7,255.5,651.3,1400.3,2273.6,204.5,59.6,15.8
0.028000,653.6,54.4,1394.9,85.4,2158.6,289.3,653.6,1401.8,2278.7,204.4,59.6,15
0.030000,656.5,60.7,1395.6,84.5,2203.5,324.8,657.6,1404.2,2287.1,204.3,59.5,14.2
0.032000,660.5,69.5,1397.5,86.3,2254.3,360.1,663.1,1407.6,2298.7,204.1,59.3,13.4
0.034000,665.7,79.9,1400.4,91.2,2298.0,396.2,670,1411.8,2313.2,204,59,12.9
0.036000,673.4,92.5,1405.5,98.0,2338.4,434.7,678.4,1417,2330.6,203.8,58.7,13
0.038000,684.1,106.2,1413.5,103.4,2380.5,460.1,688,1423,2350.4,203.7,58.4,13.6
0.040000,699.1,121.2,1425.2,105.2,2432.4,452.7,698.9,1429.9,2372.4,203.6,58.1,14.5
0.042000,715.8,133.3,1437.2,103.7,2477.9,412.4,710.9,1437.4,2396.2,203.4,57.9,15.5
0.044000,731.0,141.0,1447.5,103.1,2510.9,373.6,723.8,1445.7,2421.5,203.3,57.8,16.2
0.046000,743.0,145.2,1456.6,107.0,2535.9,357.3,737.5,1454.6,2447.9,203.2,57.8,16.4
0.048000,751.9,147.3,1465.6,115.2,2555.9,364.5,752,1464,2475,203,57.8,16.2
0.050000,761.6,148.6,1477.4,127.1,2577.0,385.4,767,1474,2502.5,202.9,57.8,15.9
0.052000,773.7,149.8,1491.7,138.1,2595.2,403.7,782.4,1484.3,2529.8,202.8,57.8,15.4
0.054000,790.6,151.7,1508.1,143.9,2603.8,408.4,798.1,1495,2556.7,202.7,57.8,15
0.056000,810.1,153.6,1522.4,141.0,2603.5,395.2,813.9,1505.9,2582.7,202.6,57.9,14.6
0.058000,829.7,154.4,1534.2,132.4,2607.0,373.2,829.7,1516.9,2607.7,202.5,58,14.2
0.060000,848.1,153.4,1546.3,122.2,2620.4,353.4,845.3,1528,2631.1,202.4,58.1,13.9
0.062000,864.7,150.5,1559.2,113.4,2640.0,337.8,860.6,1539,2652.9,202.3,58.2,13.5
0.064000,882.4,145.7,1573.0,105.2,2661.5,320.1,875.4,1549.9,2672.8,202.3,58.4,13.1
0.066000,898.9,141.0,1582.9,98.1,2678.0,304.7,889.7,1560.5,2690.5,202.2,58.5,12.6
0.068000,913.5,137.1,1587.7,92.0,2688.4,293.7,903.3,1570.8,2706,202.2,58.7,12
0.070000,924.2,132.6,1588.7,87.0,2692.2,281.8,916.2,1580.8,2719.2,202.1,58.8,11.4
0.072000,932.8,124.9,1589.2,82.5,2692.5,260.9,928.2,1590.2,2730,202.1,58.8,10.8
0.074000,940.0,116.0,1591.4,80.1,2694.0,239.2,939.4,1599.1,2738.4,202.1,58.8,10.4
0.076000,948.2,107.9,1596.3,80.6,2698.9,226.6,949.6,1607.4,2744.4,202.1,58.8,10.2
0.078000,959.1,100.6,1603.7,82.5,2707.0,224.6,958.8,1615,2748.3,202.1,58.8,10.3
0.080000,971.2,93.4,1610.8,83.3,2715.4,225.6,967,1621.9,2749.9,202.1,58.7,10.6
0.082000,982.3,85.8,1615.5,83.3,2722.0,224.5,974.1,1628,2749.7,202.1,58.7,11
0.084000,988.9,79.3,1616.7,84.5,2724.3,221.8,980.4,1633.4,2747.6,202.1,58.8,11.2
0.086000,990.8,73.7,1616.9,88.8,2722.3,216.2,985.6,1638,2743.9,202.2,58.8,11.4
0.088000,989.3,69.7,1618.7,96.9,2719.9,208.0,989.9,1641.9,2738.9,202.3,58.8,11.2
0.090000,986.8,67.1,1623.8,108.4,2721.7,203.4,993.4,1645,2732.8,202.4,58.8,11
0.092000,985.4,65.2,1632.2,120.5,2728.3,207.4,996,1647.3,2725.8,202.5,58.8,10.9
0.094000,985.6,63.2,1640.5,127.5,2735.1,217.0,998,1649,2718.2,202.6,58.8,11.3
0.096000,986.8,60.6,1646.3,129.2,2737.5,231.0,999.3,1650.1,2710.2,202.7,58.8,12.4
0.098000,988.3,58.0,1648.5,128.6,2733.3,249.5,1000.1,1650.6,2702.1,202.9,58.8,14.4
0.100000,989.5,55.9,1648.5,129.0,2724.6,273.0,1000.4,1650.7,2694,203.1,58.8,16.9
0.102000,990.4,54.6,1648.3,131.5,2716.8,293.0,1000.3,1650.3,2686.2,203.3,58.8,19.4
0.104000,991.3,53.8,1648.7,136.4,2710.7,306.8,1000,1649.6,2678.9,203.5,58.7,21.3
0.106000,992.7,53.4,1650.0,141.7,2702.1,318.4,999.6,1648.7,2672.2,203.7,58.7,22.3
0.108000,994.8,53.0,1651.4,145.0,2687.1,334.1,999.1,1647.6,2666.2,204,58.6,22.6
0.110000,997.1,52.3,1652.1,145.5,2667.0,354.5,998.6,1646.5,2661,204.2,58.6,22.4
0.112000,999.0,51.7,1651.6,144.1,2649.9,372.4,998.2,1645.4,2656.7,204.5,58.6,21.9
0.114000,1000.4,51.1,1650.7,142.2,2638.5,381.1,997.9,1644.5,2653.3,204.8,58.6,21.4
0.116000,1001.3,50.6,1650.5,140.7,2634.8,373.4,997.8,1643.8,2650.9,205.2,58.6,20.8
0.118000,1002.0,50.4,1651.2,141.0,2636.9,352.1,998,1643.4,2649.4,205.5,58.6,20.1
0.120000,1002.8,50.7,1652.0,144.1,2641.7,329.0,998.4,1643.3,2648.8,205.9,58.5,19.2
0.122000,1004.1,51.2,1653.0,149.8,2647.6,309.3,999.1,1643.6,2649,206.3,58.5,18.3
0.124000,1006.0,51.8,1654.8,156.1,2654.8,291.4,1000,1644.3,2650,206.8,58.5,17.5
0.126000,1008.4,52.2,1658.3,159.7,2662.3,274.6,1001.2,1645.5,2651.6,207.2,58.5,17
0.128000,1011.0,52.7,1662.9,159.8,2669.5,257.2,1002.5,1647.1,2653.7,207.7,58.4,16.6
0.130000,1012.8,53.5,1665.7,157.4,2673.6,241.9,1004,1649.1,2656.2,208.2,58.4,16.4
0.132000,1014.0,54.9,1666.1,154.4,2674.1,228.7,1005.4,1651.5,2659,208.7,58.3,16.2
0.134000,1014.8,57.1,1665.3,152.4,2671.3,219.9,1006.8,1654.3,2661.9,209.2,58.2,16
0.136000,1015.6,59.8,1665.2,150.1,2666.1,213.4,1008.1,1657.4,2664.8,209.8,58.1,15.9
0.138000,1016.5,62.1,1666.4,145.8,2660.2,205.6,1009.1,1660.7,2667.7,210.3,57.9,15.7
0.140000,1017.1,63.2,1668.4,141.4,2657.3,196.3,1009.7,1664,2670.3,210.9,57.7,15.6
0.142000,1017.0,64.3,1670.6,139.7,2658.4,186.7,1009.7,1667.4,2672.6,211.5,57.5,15.5
0.144000,1016.7,66.7,1672.1,141.1,2660.8,181.5,1009.2,1670.7,2674.5,212.1,57.3,15.3
0.146000,1016.0,72.3,1672.5,143.2,2661.6,183.5,1007.8,1673.8,2676,212.8,57,15
0.148000,1014.3,81.1,1671.7,145.8,2661.2,191.5,1005.5,1676.5,2676.9,213.4,56.8,14.5
0.150000,1010.2,94.4,1670.5,153.1,2663.8,201.5,1002.2,1678.7,2677.2,214,56.5,14
0.152000,1003.5,111.2,1669.0,166.0,2671.1,209.0,997.7,1680.4,2677,214.7,56.3,13.4
0.154000,994.4,127.9,1666.1,177.1,2676.8,214.6,992,1681.3,2676.1,215.3,56.1,13
0.156000,983.3,140.2,1661.2,176.3,2674.5,220.9,984.9,1681.3,2674.7,216,55.9,12.8
0.158000,970.5,149.0,1655.8,167.2,2666.9,228.4,976.4,1680.4,2672.7,216.6,55.8,12.9
0.160000,953.2,157.6,1649.8,156.5,2656.3,238.4,966.4,1678.5,2670.2,217.3,55.8,13
0.162000,933.0,164.3,1643.8,147.8,2645.2,246.1,955,1675.4,2667.3,217.9,55.8,13.2
0.164000,910.0,166.9,1638.2,140.5,2637.3,244.7,942,1671.2,2663.9,218.6,55.8,13.5
0.166000,888.2,163.6,1634.5,135.0,2637.4,232.1,927.5,1665.7,2660.2,219.2,56,13.9
0.168000,868.3,155.4,1632.3,130.9,2643.8,211.8,911.5,1659,2656.2,219.8,56.1,14.5
0.170000,850.2,144.1,1630.6,127.9,2652.3,186.8,894.2,1651.1,2652,220.4,56.3,15.2
0.172000,836.1,133.3,1628.9,126.7,2658.6,163.4,875.5,1642,2647.6,220.9,56.5,15.8
0.174000,825.0,123.7,1627.0,126.4,2662.2,143.0,855.7,1631.7,2643.3,221.5,56.6,16.1
0.176000,817.5,115.6,1625.6,124.9,2662.3,128.3,834.8,1620.4,2638.9,222,56.8,16
0.178000,810.2,108.2,1623.9,122.3,2660.4,118.4,813,1608.1,2634.6,222.5,57,15.5
0.180000,800.8,103.2,1620.4,122.2,2658.4,115.2,790.5,1594.9,2630.5,222.9,57.1,14.7
0.182000,787.1,100.5,1613.8,124.9,2657.2,117.5,767.5,1581,2626.5,223.4,57.3,13.8
0.184000,770.8,98.1,1604.9,126.7,2656.4,121.7,744.2,1566.6,2622.8,223.8,57.3,13
0.186000,752.7,93.6,1595.1,125.6,2654.7,125.2,720.9,1551.8,2619.3,224.1,57.3,12.2
0.188000,733.6,86.5,1584.8,122.6,2649.6,127.4,697.7,1536.8,2616.2,224.4,57.2,11.5
0.190000,716.4,79.3,1574.5,121.1,2640.0,128.2,675,1521.9,2613.3,224.7,57,10.8
0.192000,700.2,73.6,1562.2,124.0,2624.8,127.7,653,1507.1,2610.7,225,56.5,10
0.194000,686.7,71.0,1546.7,132.4,2606.4,125.9,631.8,1492.8,2608.4,225.2,55.8,9.3
0.196000,675.0,72.7,1523.5,145.2,2586.4,122.4,611.9,1479.1,2606.4,225.4,54.8,9.5
0.198000,666.0,79.8,1494.1,156.8,2570.1,117.4,593.3,1466.2,2604.7,225.5,53.5,14.3
0.200000,658.2,94.1,1462.1,163.0,2559.0,111.4,576.3,1454.3,2603.3,225.6,51.9,19.8
0.202000,649.0,120.6,1432.5,164.5,2552.5,106.1,561.2,1443.6,2602.1,225.7,49.9,21.3
0.204000,635.2,163.8,1410.0,165.6,2550.4,105.5,548.1,1434.3,2601.1,225.8,47.6,14
0.206000,604.6,241.2,1390.5,168.1,2553.6,115.3,537.1,1426.5,2600.3,225.8,45,-7.8
0.208000,535.0,350.5,1374.2,164.8,2564.2,143.8,528.4,1420.2,2599.8,225.8,42.3,-47.8
0.210000,410.6,395.0,1362.9,147.3,2588.0,211.9,522.1,1415.7,2599.4,225.8,39.6,-97.5
0.212000,327.7,316.8,1361.5,134.7,2636.3,333.6,518.3,1413,2599.1,225.8,37.4,-147.1
0.214000,288.3,230.9,1366.6,140.9,2698.1,434.8,517,1412.1,2599,225.8,35.7,-186.9
