time,f1,b1,f2,b2,f3,b3,f1p,f2p,f3p,f0,intensity,harmonicity
0.025011,557.1,433.2,2444.2,239.4,2998.1,637.8,372.7,2441.9,3032.2,221.3,41,-0.4
0.027011,454.4,401.3,2439.3,250.7,2992.5,584.5,372.8,2441,3030.6,220.7,42.3,0.3
0.029011,350.0,276.5,2431.6,221.4,2973.2,514.1,373,2439.6,3028.1,220.1,43.9,1.2
0.031011,305.6,144.8,2417.7,199.2,2933.1,478.1,373.3,2437.5,3024.6,219.4,45.8,2.3
0.033011,295.8,86.9,2409.1,222.8,2882.9,553.7,373.6,2434.9,3020.2,218.8,47.5,3.4
0.035011,302.9,75.9,2423.6,239.0,2916.0,774.1,374,2431.6,3014.9,218.1,49.1,4.4
0.037011,319.4,84.4,2420.7,190.0,3091.1,650.7,374.5,2427.7,3008.7,217.4,50.4,5.3
0.039011,340.6,93.7,2404.1,157.0,3131.6,450.3,375.1,2423.3,3001.6,216.7,51.3,6.1
0.041011,360.3,90.9,2395.7,159.6,3140.6,407.9,375.7,2418.2,2993.9,216,52.1,6.9
0.043011,373.2,81.1,2403.5,194.0,3127.5,461.8,376.4,2412.5,2985.5,215.2,52.7,7.8
0.045011,381.5,71.3,2426.2,239.8,3075.2,553.0,377.1,2406.1,2976.4,214.5,53.1,9.1
0.047011,386.2,62.3,2445.4,257.1,3000.1,614.3,377.9,2399.1,2966.8,213.8,53.4,10.8
0.049011,388.2,53.7,2444.9,244.2,2939.6,622.7,378.7,2391.5,2956.8,213,53.6,13
0.051011,388.9,46.5,2431.1,229.7,2902.9,591.2,379.5,2383.2,2946.4,212.3,53.7,15.2
0.053011,389.5,41.6,2410.2,219.8,2885.8,517.0,380.4,2374.3,2935.7,211.6,53.8,17.3
0.055011,390.2,39.4,2388.1,212.5,2881.3,430.8,381.3,2364.7,2924.9,210.9,53.8,18.7
0.057011,390.6,38.7,2366.1,209.9,2880.6,355.0,382.2,2354.5,2913.9,210.2,53.8,19.4
0.059011,390.8,38.8,2343.3,214.1,2881.3,295.8,383.1,2343.7,2902.9,209.5,53.8,19.7
0.061011,390.7,38.8,2319.6,222.9,2883.1,255.0,384,2332.2,2891.9,208.8,53.8,19.6
0.063011,390.4,37.6,2296.2,228.3,2883.8,233.6,384.9,2320.1,2881.1,208.1,53.9,19.5
0.065011,390.2,35.2,2277.9,220.6,2880.4,231.2,385.7,2307.4,2870.4,207.4,53.9,19.6
0.067011,390.2,32.3,2263.5,201.2,2871.9,241.4,386.6,2294.2,2860.1,206.7,54,19.9
0.069011,390.4,29.9,2251.7,178.3,2861.4,259.3,387.4,2280.3,2850.1,206.1,54,20.3
0.071011,390.7,28.5,2241.7,157.5,2854.3,283.1,388.1,2266,2840.5,205.4,54,20.6
0.073011,391.1,28.4,2233.0,139.9,2854.2,310.7,388.8,2251.1,2831.4,204.8,54.1,21
0.075011,391.4,29.2,2224.6,125.5,2859.7,334.1,389.4,2235.8,2822.8,204.1,54.1,21.3
0.077011,391.6,30.1,2216.4,116.8,2862.1,343.5,390,2220.1,2814.8,203.5,54.1,21.6
0.079011,391.5,29.9,2207.1,115.2,2854.4,350.0,390.4,2203.9,2807.4,202.8,54.1,21.8
0.081011,391.1,27.9,2196.3,119.5,2834.6,365.1,390.8,2187.5,2800.6,202.1,54.1,22.1
0.083011,390.7,25.4,2183.7,126.7,2804.9,383.0,391.1,2170.7,2794.4,201.5,54.1,22.2
0.085011,390.7,23.6,2169.2,136.1,2772.4,396.4,391.2,2153.7,2788.9,200.8,54,22.2
0.087011,390.7,22.8,2152.1,150.0,2743.2,404.9,391.3,2136.5,2784.2,200.1,54,21.9
0.089011,390.5,22.7,2133.8,166.1,2724.9,398.8,391.2,2119.1,2780,199.3,54,21.4
0.091011,390.1,23.0,2114.1,180.0,2719.3,368.1,391,2101.7,2776.6,198.6,53.9,20.9
0.093011,389.5,23.5,2093.3,187.9,2722.6,320.9,390.7,2084.3,2773.8,197.8,53.8,20.4
0.095011,389.0,24.0,2070.6,188.3,2727.6,276.7,390.3,2066.9,2771.7,197,53.8,20.2
0.097011,388.4,24.2,2046.3,181.6,2732.2,248.4,389.7,2049.5,2770.2,196.2,53.7,20.3
0.099011,387.8,23.7,2022.3,170.4,2737.3,237.7,389,2032.3,2769.2,195.3,53.6,20.7
0.101011,387.2,22.7,2002.8,159.6,2744.2,239.4,388.2,2015.3,2768.8,194.4,53.6,21.1
0.103011,386.5,21.7,1986.1,151.0,2753.9,245.0,387.3,1998.6,2769,193.5,53.5,21.5
0.105011,385.9,21.1,1970.9,144.2,2765.9,249.9,386.3,1982.1,2769.6,192.5,53.4,21.6
0.107011,385.6,21.0,1956.8,137.3,2778.4,252.6,385.1,1966,2770.7,191.5,53.4,21.5
0.109011,385.3,21.4,1943.6,128.1,2789.0,254.1,383.9,1950.3,2772.1,190.4,53.3,21.3
0.111011,384.7,21.8,1931.5,114.9,2796.9,254.3,382.5,1935,2773.9,189.2,53.3,21
0.113011,383.7,22.1,1922.1,100.9,2801.6,251.3,381.1,1920.1,2776,188,53.3,20.6
0.115011,382.3,22.5,1914.3,89.1,2803.0,245.1,379.6,1905.8,2778.4,186.7,53.3,20
0.117011,380.6,22.5,1906.0,81.3,2799.6,237.3,378,1891.9,2780.9,185.3,53.4,19.2
0.119011,378.6,22.0,1895.7,77.6,2791.8,229.0,376.4,1878.6,2783.6,183.9,53.4,18.1
0.121011,376.1,21.2,1881.8,77.0,2782.5,218.4,374.7,1865.9,2786.4,182.4,53.5,17
0.123011,373.4,20.7,1865.8,78.6,2777.3,208.7,373,1853.7,2789.3,180.8,53.6,15.9
0.125011,370.7,20.8,1847.9,80.9,2778.5,205.9,371.3,1842.1,2792.3,179,53.7,15.1
0.127011,368.0,21.2,1830.8,81.9,2788.5,210.3,369.7,1831,2795.2,177.2,53.7,14.7
0.129011,365.0,21.2,1816.9,81.3,2808.4,215.6,368,1820.5,2798.1,175.3,53.7,14.5
0.131011,361.6,20.6,1806.3,81.7,2833.9,213.6,366.4,1810.6,2801,173.3,53.7,14.3
0.133011,357.6,19.6,1796.8,87.7,2855.7,197.3,364.8,1801.1,2803.8,171.1,53.6,14
0.135011,353.7,18.8,1787.0,102.8,2864.0,173.0,363.4,1792.2,2806.4,168.8,53.5,13.5
0.137011,349.8,18.5,1776.2,127.3,2860.7,151.6,362,1783.8,2809,166.4,53.3,12.6
0.139011,346.3,19.1,1767.2,154.5,2851.7,138.5,360.7,1775.9,2811.4,163.9,53,11.4
0.141011,343.6,20.7,1761.5,173.2,2842.6,133.3,359.5,1768.4,2813.7,161.3,52.6,10.1
0.143011,342.2,23.2,1755.3,175.8,2836.0,133.6,358.5,1761.3,2815.8,158.6,52.1,8.8
0.145011,342.4,26.8,1746.7,162.1,2831.4,140.9,357.6,1754.5,2817.8,155.7,51.3,7.6
0.147011,343.8,32.4,1739.3,143.5,2827.2,158.6,356.8,1748.1,2819.7,152.8,50.4,6.3
0.149011,346.3,41.4,1734.4,129.8,2819.2,183.5,356.2,1741.9,2821.4,149.7,49.4,5
0.151011,351.0,52.3,1731.6,124.0,2805.6,199.5,355.8,1736,2823,146.6,48.2,3.7
0.153011,359.4,62.8,1730.3,125.7,2791.2,193.9,355.6,1730.3,2824.5,143.4,47,2.8
0.155011,370.1,71.4,1728.5,130.4,2781.3,175.9,355.5,1724.8,2825.8,140.2,45.9,2.6
0.157011,376.9,74.2,1724.4,125.6,2776.1,158.6,355.7,1719.4,2827.1,136.9,45.2,3.3
0.159011,376.8,69.9,1719.5,110.7,2774.3,146.7,356,1714.1,2828.4,133.6,44.8,4.8
0.161011,374.5,63.0,1713.4,94.4,2773.8,141.2,356.4,1708.8,2829.6,130.3,44.8,6.6
0.163011,373.7,57.8,1705.4,84.0,2773.4,147.4,357.1,1703.6,2830.7,127,44.8,8.2
0.165011,375.6,56.1,1698.6,83.2,2776.4,167.6,357.9,1698.4,2831.8,123.8,45,9
0.167011,377.4,57.1,1697.4,90.5,2790.1,193.5,358.9,1693.2,2833,120.6,45.2,8.9
0.169011,377.4,58.5,1701.0,101.6,2815.1,220.0,360,1687.9,2834.1,117.6,45.2,8.3
0.171011,376.1,58.2,1702.9,112.6,2840.5,249.6,361.3,1682.5,2835.3,114.7,45.3,7.3
0.173011,375.1,55.3,1696.8,123.7,2859.5,297.9,362.6,1677.1,2836.5,111.9,45.4,6.2
0.175011,375.3,49.1,1682.4,134.7,2867.7,389.7,364.1,1671.6,2837.8,109.2,45.4,5.3
0.177011,375.6,41.0,1666.7,141.8,2859.6,547.2,365.7,1666,2839.1,106.8,45.2,4.5
0.179011,375.2,32.8,1654.7,140.6,2826.4,687.3,367.3,1660.4,2840.5,104.5,45,3.6
0.181011,374.2,26.7,1645.8,130.3,2821.5,537.3,369,1654.6,2842,102.5,44.6,2.7
0.183011,373.8,30.7,1646.0,129.2,2852.0,299.1,370.7,1648.8,2843.6,100.6,44.1,1.9
0.185011,374.0,56.0,1643.7,139.8,2865.1,213.1,372.4,1643,2845.3,99,43.7,1.3
0.187011,372.1,92.0,1631.1,136.7,2869.1,191.7,374,1637.1,2847,97.7,43.4,0.9
0.189011,368.6,98.3,1617.0,121.1,2871.0,184.3,375.7,1631.2,2848.8,96.6,43.4,0.7
0.191011,366.5,79.6,1604.7,101.2,2872.0,181.2,377.2,1625.3,2850.7,95.8,43.3,0.6
0.193011,366.1,60.5,1596.1,84.8,2872.8,183.2,378.7,1619.4,2852.7,95.2,43.2,0.5
0.195011,367.0,51.8,1593.0,78.0,2877.1,187.7,380,1613.6,2854.7,94.9,42.8,0.6
0.197011,368.7,66.2,1597.6,90.9,2887.3,183.6,381.2,1607.9,2856.7,94.8,42.3,0.7
0.199011,368.0,118.6,1603.0,116.9,2895.6,172.8,382.3,1602.4,2858.8,95.1,41.7,1
0.201011,361.5,178.3,1599.5,127.2,2895.1,161.6,383.2,1597,2860.8,95.5,41.2,1.3
0.203011,357.6,179.7,1591.1,117.3,2887.9,149.4,383.8,1591.8,2862.9,96.3,40.8,1.6
0.205011,361.4,151.2,1586.1,106.6,2882.1,143.3,384.3,1586.8,2864.9,97.3,40.6,1.8
0.207011,369.9,141.6,1589.0,109.1,2884.6,150.0,384.6,1582,2866.9,98.6,40.7,1.7
0.209011,377.0,148.0,1596.3,119.9,2890.4,159.3,384.6,1577.6,2868.8,100.1,40.9,1.5
0.211011,376.7,140.5,1599.3,123.8,2889.7,156.6,384.4,1573.5,2870.6,101.9,41.2,1.3
0.213011,371.8,113.9,1597.2,118.9,2882.9,144.4,383.9,1569.6,2872.3,103.9,41.4,1.2
0.215011,366.4,81.3,1591.0,109.7,2872.1,128.5,383.1,1566.2,2874,106.2,41.6,1.5
0.217011,362.6,55.1,1580.2,101.0,2859.7,116.9,382.2,1563.1,2875.5,108.7,41.6,5.5
0.219011,361.3,38.4,1561.3,99.2,2846.2,125.5,380.9,1560.4,2876.8,111.4,41.6,13.2
0.221011,363.6,32.7,1539.4,109.8,2834.0,197.2,379.4,1558.1,2878,114.4,41.6,19.4
0.223011,367.4,32.0,1532.6,118.7,2831.2,358.9,377.7,1556.2,2879.1,117.6,41.5,18.9
0.225011,370.6,30.5,1536.3,114.5,2841.7,496.5,375.7,1554.6,2880,121.1,41.3,6.5
0.227011,372.9,27.3,1540.5,103.6,2851.9,535.1,373.6,1553.5,2880.7,124.7,40.8,-27.8
0.229011,374.6,24.7,1543.2,96.5,2854.5,521.1,371.2,1552.8,2881.3,128.6,40,-80.4
0.231011,376.1,25.2,1544.8,102.6,2848.3,469.1,368.7,1552.4,2881.7,0,38.9,-136.6
0.233011,378.9,35.4,1548.0,141.3,2840.7,366.4,365.9,1552.4,2881.9,0,37.6,-181.4
0.235011,387.6,74.5,1561.7,210.7,2850.1,288.3,363.1,1552.7,2882,0,36.3,-200
0.237011,404.4,153.4,1574.5,223.7,2873.4,252.4,360.1,1553.4,2881.9,0,35.5,-179.5
0.239011,410.0,198.9,1577.0,196.9,2897.8,230.9,357.1,1554.3,2881.7,0,35.8,-129.8
0.241011,401.5,190.7,1575.8,172.9,2915.0,215.8,354,1555.5,2881.4,0,36.4,-70.2
0.243011,391.0,168.2,1572.4,152.0,2923.9,202.3,350.8,1556.8,2880.9,0,37.1,-20.3
0.245011,381.4,141.5,1566.8,131.9,2924.7,189.6,347.7,1558.4,2880.4,0,37.7,0.7
0.247011,373.6,113.7,1559.3,113.7,2918.5,179.7,344.5,1560.1,2879.8,0,37.9,-16.9
0.249011,367.8,86.7,1549.8,100.8,2906.1,176.4,341.5,1561.9,2879.1,0,37.7,-60.3
0.251011,364.6,66.9,1539.8,101.8,2891.5,188.7,338.5,1563.8,2878.3,0,37.3,-114.9
0.253011,361.0,58.2,1530.2,129.5,2879.4,231.7,335.6,1565.7,2877.6,0,36.5,-166.3
0.255011,353.5,64.3,1524.5,202.5,2869.9,315.9,332.9,1567.6,2876.8,0,35.6,-200
0.257011,339.9,89.0,1529.9,313.2,2850.7,424.5,330.4,1569.4,2876,0,34.7,-212.8
0.259011,320.0,134.5,1548.7,418.5,2821.1,532.6,328,1571.2,2875.3,0,33.8,-214.5
0.261011,297.1,196.8,1576.7,508.4,2801.8,655.7,325.9,1572.8,2874.6,200.5,32.9,-209.6
0.263011,283.8,247.7,1599.5,567.7,2804.1,786.6,324,1574.3,2873.9,204.4,32.3,-203.2
0.265011,285.0,274.5,1604.8,599.2,2815.4,874.0,322.3,1575.6,2873.4,208.1,31.9,-200
0.267011,295.4,289.0,1597.9,634.9,2840.8,878.0,321,1576.7,2872.9,211.6,31.7,-200
0.269011,306.9,319.3,1595.7,708.1,2910.1,795.8,319.9,1577.6,2872.5,214.9,31.7,-200
0.271011,314.0,380.4,1594.9,806.5,2943.3,636.4,319.1,1578.3,2872.2,218,32.2,-200
0.273011,309.1,494.1,1581.9,916.2,2937.6,591.9,318.6,1578.6,2872,220.8,31.9,-200
0.275011,245.5,745.3,1571.5,1069.7,2954.5,648.2,318.5,1578.8,2872,223.5,32,-200
