time,f1,b1,f2,b2,f3,b3,f1p,f2p,f3p,f0,intensity,harmonicity
0.025011,564.9,117.8,1507.7,80.3,2960.9,128.5,565,1516.1,2962.4,134.2,55.2,6.3
0.027011,567.7,98.3,1510.7,67.5,2958.6,108.7,565.8,1516.7,2962.3,133.9,57,19.3
0.029011,569.3,81.2,1513.5,58.0,2957.7,96.9,567.2,1517.7,2962.1,133.6,58.3,20.6
0.031011,570.9,68.9,1516.8,53.1,2957.9,92.2,569.2,1519,2961.8,133.3,59.4,15.3
0.033011,573.4,61.9,1521.3,53.2,2959.1,90.9,571.6,1520.6,2961.5,133,60.1,8.3
0.035011,575.9,58.1,1525.7,56.2,2960.9,88.4,574.6,1522.4,2961.2,132.7,60.7,4.7
0.037011,577.9,54.7,1528.8,57.6,2963.0,83.6,578.1,1524.4,2960.8,132.3,61.1,4.3
0.039011,580.0,53.3,1531.4,57.9,2965.7,79.9,582,1526.3,2960.5,131.9,61.3,3.8
0.041011,583.0,57.2,1533.9,59.6,2967.3,79.9,586.4,1528.2,2960.2,131.5,61.4,3.3
0.043011,587.4,64.9,1535.5,61.2,2966.1,80.4,591.1,1529.9,2960,131.1,61.5,3
0.045011,592.2,70.4,1535.1,59.6,2962.8,78.7,596.2,1531.4,2960,130.7,61.4,3.2
0.047011,597.5,73.9,1534.1,57.9,2959.8,79.6,601.6,1532.5,2960.1,130.3,61.3,3.9
0.049011,604.8,80.6,1533.7,59.6,2958.0,87.7,607.3,1533.2,2960.4,129.9,61.2,5
0.051011,614.1,88.4,1533.5,61.9,2956.8,98.9,613.1,1533.4,2961,129.5,61.1,6.3
0.053011,621.5,89.3,1532.9,60.3,2956.8,103.2,619,1533.1,2962,129.1,61.1,7.5
0.055011,626.8,86.6,1531.7,58.3,2959.7,103.2,625,1532.3,2963.3,128.7,61,8.4
0.057011,633.1,87.5,1530.4,60.6,2965.8,107.0,630.9,1531,2965,128.3,61,8.8
0.059011,640.0,89.2,1528.6,64.3,2971.8,110.9,636.7,1529.1,2967.2,127.9,61,8.9
0.061011,645.1,86.1,1526.0,64.2,2975.4,108.6,642.3,1526.7,2969.9,127.5,61,8.9
0.063011,648.8,82.0,1522.9,62.2,2978.5,103.9,647.7,1523.8,2973.1,127.1,60.9,9
0.065011,653.6,82.4,1519.2,63.4,2982.4,104.5,652.8,1520.5,2976.8,126.7,60.9,9.2
0.067011,659.3,84.5,1514.7,65.7,2985.6,109.2,657.4,1516.8,2981.1,126.4,60.8,9.6
0.069011,663.2,82.9,1509.8,64.2,2987.2,111.4,661.7,1512.8,2986,126.1,60.7,10
0.071011,665.5,81.2,1505.1,61.2,2990.2,114.6,665.4,1508.6,2991.5,125.8,60.6,10.6
0.073011,667.6,85.0,1501.1,61.6,2996.1,127.3,668.6,1504.3,2997.4,125.5,60.6,11.1
0.075011,669.7,89.9,1497.3,63.2,3002.0,145.0,671.2,1499.8,3003.9,125.2,60.5,11.7
0.077011,671.0,89.1,1493.6,61.2,3005.6,152.6,673.3,1495.4,3010.7,125,60.4,12.2
0.079011,671.9,86.8,1489.6,57.7,3010.6,152.6,674.7,1490.9,3017.9,124.7,60.3,12.8
0.081011,673.1,90.9,1485.8,57.7,3020.5,158.2,675.6,1486.5,3025.3,124.5,60.1,13.4
0.083011,674.1,99.1,1482.0,60.1,3032.3,168.3,675.8,1482.2,3032.9,124.3,60,13.9
0.085011,674.5,103.0,1478.9,59.9,3041.3,167.9,675.6,1477.9,3040.5,124.1,59.9,14.5
0.087011,674.7,105.4,1476.6,58.7,3048.4,157.8,674.8,1473.7,3047.9,123.9,59.7,15
0.089011,674.9,113.6,1474.1,60.9,3056.0,152.0,673.6,1469.6,3055,123.8,59.6,15.4
0.091011,674.1,123.9,1470.0,65.8,3061.3,156.2,671.9,1465.5,3061.7,123.6,59.4,15.9
0.093011,671.1,123.4,1464.2,66.3,3061.0,163.3,669.9,1461.3,3067.8,123.5,59.3,16.3
0.095011,666.9,115.1,1458.5,62.3,3058.1,169.5,667.6,1457,3073,123.4,59.1,16.6
0.097011,663.1,111.8,1454.4,61.3,3059.2,180.6,665.1,1452.6,3077.3,123.3,58.9,17
0.099011,660.6,115.6,1450.6,65.6,3065.1,200.4,662.3,1447.9,3080.4,123.2,58.7,17.4
0.101011,659.0,117.4,1446.0,68.6,3069.9,215.2,659.5,1442.8,3082.2,123.2,58.5,17.8
0.103011,657.0,116.3,1440.7,68.3,3073.7,221.2,656.7,1437.4,3082.6,123.1,58.3,17.9
0.105011,654.8,120.8,1435.4,71.4,3082.3,232.7,653.8,1431.5,3081.3,123.1,58.1,17.7
0.107011,653.3,132.2,1428.4,80.5,3096.9,260.5,651,1425,3078.3,123,57.9,17.1
0.109011,651.7,137.7,1418.9,86.0,3107.5,293.0,648.2,1417.9,3073.5,123,57.7,16.1
0.111011,648.9,135.6,1407.1,83.5,3109.2,316.4,645.6,1410.2,3066.8,123,57.5,15
0.113011,645.9,139.1,1393.9,81.7,3111.1,348.1,643.1,1401.7,3058.1,123,57.3,13.9
0.115011,643.9,150.6,1380.9,85.2,3117.9,423.8,640.8,1392.6,3047.4,123,57.2,13.1
0.117011,641.2,155.3,1369.4,85.8,3116.0,584.8,638.6,1382.8,3034.7,123,57,12.7
0.119011,636.8,147.0,1360.6,78.4,3056.0,769.8,636.6,1372.4,3020.1,123.1,56.9,12.5
0.121011,631.8,139.3,1352.5,70.6,2967.4,822.7,634.7,1361.3,3003.7,123.1,56.7,12.4
0.123011,627.9,139.4,1343.3,68.4,2895.7,812.0,632.9,1349.7,2985.5,123.2,56.5,12.3
0.125011,625.5,140.8,1333.8,69.3,2847.7,768.5,631.3,1337.5,2965.7,123.2,56.3,12.2
0.127011,624.1,140.0,1326.9,71.4,2838.8,724.5,629.8,1325,2944.4,123.3,56.1,11.8
0.129011,623.5,145.0,1322.2,79.9,2855.8,708.2,628.3,1312.1,2921.9,123.3,55.9,11.4
0.131011,624.6,161.5,1316.6,101.6,2877.2,712.9,626.9,1299.1,2898.4,123.4,55.6,10.9
0.133011,626.1,176.8,1306.6,129.3,2874.6,718.8,625.6,1286,2874,123.5,55.3,10.7
0.135011,625.3,181.4,1291.4,150.7,2841.7,716.3,624.3,1272.9,2849.1,123.6,55.1,10.7
0.137011,623.0,186.8,1274.2,170.1,2805.2,716.8,623,1259.9,2824,123.6,54.8,11.2
0.139011,621.8,208.5,1256.0,201.7,2781.9,747.2,621.7,1247.3,2798.9,123.7,54.5,12.1
0.141011,622.6,238.5,1238.1,235.1,2785.1,772.4,620.4,1235,2774.1,123.8,54.3,13.2
0.143011,623.2,260.1,1222.9,254.9,2815.5,746.9,619.2,1223.3,2750,123.9,54,14.1
0.145011,623.0,282.1,1206.9,277.8,2847.5,711.1,617.9,1212.2,2726.8,124,53.8,14.6
0.147011,623.2,313.6,1188.5,322.0,2854.5,756.3,616.7,1201.8,2704.7,124.1,53.6,14.5
0.149011,622.2,334.1,1170.1,370.7,2803.6,867.3,615.6,1192.3,2684.2,124.2,53.4,14
0.151011,616.7,327.4,1158.5,398.6,2721.0,884.8,614.5,1183.7,2665.4,124.2,53.2,13.4
0.153011,609.8,314.5,1151.3,436.9,2648.1,844.9,613.5,1176,2648.6,124.3,53,12.8
0.155011,608.3,313.1,1145.1,524.7,2583.4,815.7,612.6,1169.5,2634,124.4,52.8,12.6
0.157011,613.0,309.6,1142.2,650.2,2545.0,807.5,611.9,1164,2621.8,124.5,52.7,12.6
0.159011,616.6,294.7,1148.7,780.5,2544.5,827.3,611.3,1159.7,2612.1,124.6,52.5,12.8
0.161011,614.5,277.4,1164.5,918.7,2562.5,866.8,610.8,1156.6,2605.1,124.6,52.3,13.2
0.163011,606.6,260.9,1188.4,1070.7,2572.0,895.1,610.6,1154.8,2600.8,124.7,52.1,13.5
0.165011,596.9,244.2,1209.2,1158.4,2565.3,879.9,610.5,1154.2,2599.4,124.8,51.9,13.8
