time,f1,b1,f2,b2,f3,b3,f1p,f2p,f3p,f0,intensity,harmonicity
0.025011,266.2,127.5,1563.9,386.4,2430.6,326.3,322.5,1473,2273.6,151.5,75.2,9.4
0.027011,281.2,107.4,1541.3,370.6,2411.4,389.0,322.4,1471.3,2272.1,151.1,75.8,8.2
0.029011,293.6,90.8,1526.3,337.3,2402.6,465.9,322.2,1468.4,2269.7,150.7,76.4,6.2
0.031011,300.9,76.4,1511.5,302.5,2381.4,536.0,322,1464.4,2266.3,150.3,76.8,3.9
0.033011,304.1,65.6,1491.1,279.5,2328.3,572.6,321.7,1459.3,2261.9,149.9,77.4,2.1
0.035011,305.5,59.9,1467.0,273.5,2268.7,557.1,321.3,1453.2,2256.7,149.4,77.9,1.3
0.037011,306.4,58.1,1437.8,280.9,2224.7,513.7,321,1446,2250.6,148.9,78.4,2
0.039011,307.0,57.6,1400.0,291.2,2195.1,456.7,320.6,1437.9,2243.7,148.4,78.7,3.7
0.041011,308.3,55.9,1365.6,286.1,2174.8,405.2,320.2,1428.9,2236,147.9,79.1,5.8
0.043011,311.1,53.1,1342.6,267.0,2153.8,363.5,319.8,1419,2227.6,147.3,79.2,8
0.045011,314.4,50.9,1329.0,246.3,2131.3,325.0,319.4,1408.4,2218.6,146.8,79.4,9.6
0.047011,318.1,49.9,1319.2,227.7,2117.2,286.5,319.1,1397,2209,146.2,79.3,10.7
0.049011,323.2,50.8,1316.0,214.2,2121.2,262.0,318.9,1385.1,2198.9,145.6,79.3,11.6
0.051011,328.2,52.4,1315.7,201.8,2134.2,254.5,318.8,1372.6,2188.3,145,79.2,12.3
0.053011,332.7,54.1,1313.6,185.9,2147.2,263.1,318.7,1359.6,2177.3,144.4,79.1,12.9
0.055011,337.6,55.4,1311.8,169.1,2157.8,287.8,318.9,1346.2,2166.1,143.8,78.9,13.4
0.057011,342.5,55.4,1310.3,158.9,2159.1,320.4,319.1,1332.6,2154.6,143.1,78.8,13.8
0.059011,346.5,55.5,1306.9,159.5,2147.9,363.7,319.5,1318.7,2143,142.5,78.6,14.1
0.061011,349.6,57.3,1301.5,170.6,2127.7,416.5,320.1,1304.7,2131.4,141.8,78.5,14.3
0.063011,351.7,58.7,1295.9,180.9,2108.6,454.3,320.9,1290.6,2119.7,141.2,78.4,14.4
0.065011,353.0,58.7,1289.8,186.3,2089.7,471.7,321.8,1276.6,2108.2,140.5,78.3,14.6
0.067011,353.6,58.9,1281.3,191.6,2065.1,471.3,323,1262.6,2096.7,139.8,78.2,14.8
0.069011,354.2,59.3,1272.1,195.1,2044.9,449.4,324.4,1248.8,2085.6,139.1,78.1,15
0.071011,355.3,58.8,1264.2,194.7,2039.8,417.8,326,1235.3,2074.7,138.4,78,15.2
0.073011,356.3,58.6,1256.1,197.8,2044.6,392.5,327.8,1222,2064.1,137.7,77.9,15.4
0.075011,357.0,59.2,1246.0,206.0,2046.3,374.5,329.8,1209.1,2054,137,77.7,15.6
0.077011,357.8,58.5,1233.3,207.0,2039.7,352.3,331.9,1196.5,2044.3,136.2,77.6,15.8
0.079011,358.4,55.1,1218.1,192.5,2024.8,320.4,334.3,1184.4,2035.2,135.5,77.5,16
0.081011,358.5,51.2,1200.9,172.0,2004.7,281.6,336.8,1172.7,2026.6,134.8,77.3,16.2
0.083011,358.3,47.7,1182.5,151.1,1984.4,236.5,339.5,1161.5,2018.5,134.1,77.1,16.3
0.085011,357.9,43.8,1166.8,130.0,1970.2,194.5,342.3,1150.8,2011.1,133.3,76.9,16.2
0.087011,357.5,40.1,1155.9,113.9,1964.0,167.9,345.2,1140.6,2004.4,132.6,76.8,16
0.089011,357.1,37.7,1145.4,104.0,1963.8,150.9,348.2,1130.9,1998.3,131.9,76.5,15.5
0.091011,356.8,36.9,1136.0,98.8,1968.7,136.9,351.2,1121.7,1992.9,131.2,76.3,15.1
0.093011,356.5,36.3,1129.2,92.8,1976.0,121.5,354.3,1113.1,1988.2,130.5,76.2,14.6
0.095011,355.7,35.8,1124.0,86.6,1984.6,109.4,357.3,1104.9,1984.2,129.8,76,14.5
0.097011,354.5,36.8,1118.5,85.5,1994.5,106.6,360.2,1097.1,1980.9,129.1,75.8,14.7
0.099011,353.5,38.2,1111.5,87.8,2003.5,108.6,363,1089.9,1978.3,128.4,75.6,15.2
0.101011,352.6,37.3,1102.5,87.1,2006.3,107.6,365.7,1083,1976.3,127.8,75.5,15.7
0.103011,351.5,34.7,1093.2,84.2,2004.0,102.0,368.3,1076.4,1975,127.1,75.3,16.1
0.105011,350.1,33.4,1082.9,86.7,2001.9,96.8,370.6,1070.2,1974.3,126.5,75.2,16.1
0.107011,349.3,33.5,1071.0,95.8,2001.2,93.6,372.6,1064.3,1974.2,125.9,75,15.5
0.109011,349.3,32.9,1061.2,100.6,2001.3,90.1,374.4,1058.6,1974.6,125.3,74.8,14.4
0.111011,349.0,31.7,1054.5,99.0,2003.7,89.2,375.8,1053.1,1975.7,124.7,74.7,13.2
0.113011,347.1,32.3,1049.1,99.4,2011.4,99.2,376.9,1047.8,1977.2,124.2,74.5,12
0.115011,345.0,34.5,1043.5,103.8,2023.6,119.1,377.6,1042.5,1979.2,123.7,74.3,11.2
0.117011,344.7,35.5,1036.7,104.6,2033.3,132.4,377.9,1037.3,1981.6,123.2,74.1,11.1
0.119011,345.2,33.9,1028.1,99.0,2033.9,128.7,377.7,1032,1984.5,122.7,73.9,11.5
0.121011,344.0,31.4,1017.6,93.2,2026.4,119.6,377.1,1026.8,1987.7,122.2,73.7,11.9
0.123011,341.5,29.7,1005.4,92.2,2015.3,116.4,376,1021.4,1991.2,121.8,73.5,11.8
0.125011,341.2,28.3,994.8,93.6,2007.3,117.3,374.4,1016,1995.1,121.4,73.1,10.9
0.127011,343.7,26.2,988.6,90.7,2007.2,114.1,372.3,1010.4,1999.2,121,72.6,8.5
0.129011,346.6,23.8,983.7,84.7,2011.4,107.9,369.7,1004.6,2003.5,0,72.1,4.9
0.131011,346.2,24.4,974.5,86.3,2016.0,112.7,366.7,998.7,2008.1,0,71.4,1.1
0.133011,340.1,32.1,959.2,106.5,2017.4,143.5,363.2,992.5,2012.8,0,70.8,-2.3
0.135011,330.1,46.9,941.9,139.0,2016.4,190.7,359.2,986.2,2017.7,0,70.4,-4.3
0.137011,323.8,58.0,931.6,158.1,2019.2,211.9,354.8,979.6,2022.7,0,70.2,-4.7
0.139011,324.2,60.9,927.8,159.3,2027.2,202.2,350,972.9,2027.9,0,70.1,-3.8
0.141011,330.6,57.1,929.0,146.8,2037.1,175.7,344.8,966,2033.2,0,70,-2.4
0.143011,339.2,49.0,932.5,126.1,2045.0,145.6,339.3,958.9,2038.6,0,69.8,-1
0.145011,348.0,38.9,935.6,101.6,2051.1,115.7,333.5,951.8,2044.1,0,69.3,-0.2
0.147011,354.9,29.0,935.8,77.3,2056.2,88.9,327.5,944.5,2049.7,0,68.6,-0.1
0.149011,354.3,23.7,928.2,62.4,2057.8,75.6,321.3,937.3,2055.5,0,67.9,-0.4
0.151011,340.6,26.0,910.7,63.4,2051.8,89.5,315,930,2061.4,0,67.5,-0.8
0.153011,320.5,36.3,897.0,82.2,2040.0,153.7,308.7,922.9,2067.4,0,67.4,-1.2
0.155011,312.8,46.4,899.3,103.3,2046.0,225.3,302.4,915.9,2073.6,0,67.7,-1.6
0.157011,315.4,51.1,906.0,111.8,2064.5,237.0,296.2,909.1,2080,0,68.1,-1.8
0.159011,323.2,51.4,911.3,108.9,2079.0,216.2,290.2,902.6,2086.6,0,68.4,-2
0.161011,333.0,48.0,915.2,99.1,2088.4,191.3,284.4,896.6,2093.5,0,68.4,-2.1
0.163011,343.5,41.8,918.6,85.3,2096.1,166.2,279,890.9,2100.7,0,68.1,-2.2
0.165011,353.8,33.7,921.9,69.3,2104.2,141.1,274,885.9,2108.2,0,67.5,-2.2
0.167011,360.6,26.8,923.4,56.2,2112.4,123.7,269.4,881.5,2116,0,66.7,-1.9
0.169011,358.6,24.7,919.1,52.6,2119.9,130.0,265.5,877.8,2124.2,0,65.9,-1.4
0.171011,337.8,35.3,901.4,74.0,2125.9,215.0,262.2,874.9,2132.9,0,65.2,-0.9
0.173011,306.2,63.0,879.7,128.1,2149.6,422.1,259.6,873,2142,0,65,-0.5
0.175011,283.4,93.0,873.8,183.7,2190.9,509.3,257.8,872,2151.6,0,65.3,-0.2
0.177011,276.4,109.6,885.9,203.7,2200.2,403.4,256.9,872.1,2161.7,0,65.9,-0.3
0.179011,278.3,126.2,901.4,207.7,2205.4,332.0,256.9,873.4,2172.5,0,66.3,-0.6
0.181011,285.6,144.7,909.6,202.7,2208.2,295.2,257.8,875.9,2183.8,0,66.5,-0.9
0.183011,294.7,158.5,910.2,192.2,2208.6,276.2,259.9,879.7,2195.7,0,66.7,-1.1
0.185011,302.2,164.1,905.9,177.8,2206.9,265.0,263,884.8,2208.3,120.4,66.9,-1.1
0.187011,303.3,159.0,897.9,160.3,2200.5,262.4,267.2,891.4,2221.6,120.6,66.7,-0.8
0.189011,298.6,145.7,890.3,145.7,2186.8,275.2,272.6,899.3,2235.5,120.8,66.7,-0.4
0.191011,293.8,132.1,887.9,136.2,2165.9,300.8,279.2,908.8,2250.2,121.1,66.7,0.2
0.193011,288.2,123.5,890.1,129.2,2145.5,324.2,287,919.8,2265.5,121.3,66.8,1
0.195011,277.6,123.8,891.3,124.4,2133.2,336.8,296,932.3,2281.6,121.4,66.8,2.2
0.197011,260.0,132.3,889.6,122.4,2126.4,331.6,306.2,946.3,2298.4,121.6,66.9,4.1
0.199011,237.4,147.2,889.0,124.2,2126.7,302.7,317.7,961.8,2315.8,121.7,67,6.4
0.201011,215.6,161.1,897.8,127.2,2135.8,275.0,330.3,978.8,2333.9,121.9,67.1,9
0.203011,196.2,164.6,918.9,122.3,2153.3,262.8,344.1,997.3,2352.7,121.9,67.2,11.3
0.205011,181.3,153.6,943.9,105.9,2179.6,259.3,359,1017.3,2372.1,122,67.3,12.9
0.207011,171.1,138.0,960.2,90.4,2204.7,256.5,375,1038.6,2392.1,122,67.4,13.9
0.209011,161.8,127.3,968.4,84.2,2219.5,264.7,392,1061.2,2412.6,122,67.5,14.4
0.211011,152.2,129.2,968.6,94.5,2217.4,321.3,410.1,1085.1,2433.6,122,67.6,14.6
0.213011,142.1,158.8,964.8,134.8,2217.2,501.0,429,1110.1,2455.1,121.9,67.5,14.5
0.215011,120.3,237.6,975.8,225.9,2337.2,1034.9,448.8,1136.2,2476.9,121.8,67.4,14.1
0.217011,85.4,314.5,1013.0,303.8,2966.1,641.3,469.4,1163.3,2499.1,121.7,67.1,16.5
0.219011,65.7,334.0,1036.0,309.2,2868.4,743.6,490.6,1191.2,2521.5,121.5,66.7,21.8
0.221011,1038.5,312.6,2745.6,1005.6,3649.0,541.5,512.4,1219.9,2544.1,121.4,65.9,25.3
0.223011,1023.4,352.8,2618.3,1299.4,3638.0,480.0,534.8,1249.1,2566.8,121.2,65,22.2
0.225011,969.2,441.7,1232.2,1990.1,2819.0,1630.7,557.5,1278.9,2589.6,121,64,7.9
0.227011,888.1,379.2,1437.5,791.9,2989.2,1085.8,580.5,1309.1,2612.3,120.8,62.6,-24.1
0.229011,899.1,306.4,1462.9,560.4,3067.4,707.6,603.7,1339.5,2634.9,120.6,60.7,-70.7
0.231011,948.2,258.5,1499.6,551.7,3075.0,354.2,627,1370,2657.2,120.3,58.7,-122.1
0.233011,980.4,204.3,1528.7,566.9,3071.3,231.1,650.3,1400.4,2679.3,120.1,56.8,-168.5
0.235011,982.1,181.0,1508.8,597.0,3081.3,191.1,673.5,1430.7,2701,0,54.4,-200
0.237011,971.0,185.9,1498.5,659.5,3079.5,159.8,696.4,1460.6,2722.3,0,53.4,-213.3
0.239011,957.2,194.1,1543.5,791.0,3071.2,139.0,719.1,1490.1,2743.1,0,53.7,-215
0.241011,509.5,964.9,970.7,164.9,1710.6,903.1,741.3,1519,2763.2,0,52.8,-210
0.243011,555.5,542.0,993.0,107.9,1874.4,853.8,763,1547.2,2782.7,0,53.3,-203.3
0.245011,566.8,341.9,1004.5,67.9,1962.6,798.4,784,1574.6,2801.5,0,55.2,-200
0.247011,559.5,272.8,1008.6,53.2,1977.7,818.9,804.4,1601.1,2819.4,0,55,-200
0.249011,515.5,311.3,1006.8,56.9,1913.2,959.6,824.1,1626.5,2836.5,0,53.5,-200
0.251011,382.8,511.8,996.2,77.8,1747.4,1137.0,842.9,1650.8,2852.7,0,53.5,-200
0.253011,975.2,103.7,1600.4,1085.7,2976.9,200.2,860.7,1673.8,2867.9,0,54.6,-200
0.255011,946.7,119.3,1533.7,893.5,2971.5,195.6,877.7,1695.6,2882.1,0,55.9,-200
0.257011,926.1,117.5,1484.7,708.2,2958.8,240.7,893.6,1716,2895.4,0,57.3,-200
0.259011,920.8,113.0,1453.7,609.9,2941.2,331.0,908.4,1734.9,2907.5,0,58.4,-200
0.261011,924.9,114.2,1460.4,613.5,2942.5,396.1,922.2,1752.4,2918.6,0,59,-200
0.263011,936.9,119.6,1525.1,731.8,2979.0,361.7,934.9,1768.5,2928.6,0,59.3,-200
0.265011,952.9,123.3,1699.5,906.8,3015.1,273.3,946.4,1783,2937.6,0,59.1,-200
0.267011,968.9,122.1,1960.5,848.3,3041.9,194.9,956.8,1796,2945.5,0,58.5,-200
0.269011,980.3,111.5,2089.0,715.9,3059.9,156.6,966.2,1807.5,2952.3,0,57.8,-200
0.271011,992.0,88.7,2136.0,701.3,3074.6,151.8,974.3,1817.5,2958.1,0,56.9,-200
0.273011,1004.8,65.3,2140.5,786.6,3089.5,169.5,981.4,1826,2962.8,0,55.9,-200
0.275011,1012.7,50.4,2118.6,875.1,3107.4,189.5,987.5,1833.1,2966.6,0,54.6,-200
0.277011,1014.9,41.6,2091.6,809.8,3127.5,190.3,992.5,1838.8,2969.5,0,53.3,-200
0.279011,1011.7,38.2,2084.6,635.3,3140.4,177.3,996.5,1843.3,2971.5,0,51.9,-200
0.281011,1004.4,40.0,2090.7,516.6,3141.4,172.0,999.7,1846.5,2972.7,0,50.3,-200
0.283011,994.7,42.4,2094.6,465.3,3132.5,178.0,1001.9,1848.5,2973.1,0,48.7,-200
0.285011,986.9,42.1,2095.9,468.9,3111.2,189.6,1003.3,1849.5,2972.7,0,47.7,-200
0.287011,984.0,42.0,2101.7,518.3,3085.0,197.1,1004,1849.4,2971.8,0,47.7,-200
0.289011,983.0,46.5,2116.3,609.8,3062.8,204.5,1004,1848.6,2970.3,0,48.3,-200
0.291011,978.9,61.4,2137.1,744.0,3049.1,225.5,1003.5,1846.9,2968.3,0,48.8,-200
0.293011,964.0,92.3,2155.5,889.0,3050.9,269.1,1002.4,1844.5,2965.9,0,48.8,-200
0.295011,931.7,133.1,2173.2,959.3,3079.9,319.6,1000.8,1841.6,2963.1,0,48.7,-200
0.297011,903.7,148.3,2185.6,857.7,3133.1,314.6,998.9,1838.3,2960.1,0,48.6,-200
0.299011,910.9,143.1,2186.2,755.8,3171.9,264.8,996.7,1834.5,2956.9,0,48.5,-200
0.301011,939.6,140.0,2168.0,749.4,3196.3,222.8,994.3,1830.6,2953.5,0,48.7,-200
0.303011,979.3,135.8,2135.2,837.7,3218.5,199.6,991.8,1826.5,2950.2,0,48.6,-200
0.305011,1008.4,116.9,2115.2,1009.8,3245.1,202.7,989.2,1822.4,2946.8,0,48.4,-200
0.307011,1016.9,89.9,2161.6,1371.4,3286.3,241.6,986.7,1818.4,2943.6,0,48.2,-200
0.309011,1015.8,66.9,1386.2,2161.5,2566.8,1399.2,984.2,1814.5,2940.5,0,48.3,-200
0.311011,1015.8,52.5,1348.9,1829.6,2649.4,1137.1,981.8,1810.9,2937.6,0,48.9,-200
0.313011,1018.2,44.0,1378.0,1987.6,2708.9,1127.2,979.7,1807.6,2935,0,49.7,-200
0.315011,1021.4,42.3,1353.4,2188.2,2761.6,935.4,977.8,1804.6,2932.8,0,50.3,-200
0.317011,1023.8,48.4,1256.1,2115.4,2752.0,562.6,976.2,1802.2,2930.9,0,50.7,-200
0.319011,1022.7,68.9,1264.8,1903.3,2740.8,337.8,974.9,1800.2,2929.3,0,50.8,-200
0.321011,1012.0,105.7,1431.4,1548.7,2740.0,261.4,973.9,1798.8,2928.2,0,50.4,-200
0.323011,992.7,134.4,1633.8,1181.6,2743.7,257.6,973.3,1797.9,2927.5,0,49.6,-200
0.325011,975.6,147.3,1795.5,894.0,2751.2,292.8,973.2,1797.6,2927.3,0,48.6,-200
