time,f1,b1,f2,b2,f3,b3,f1p,f2p,f3p,f0,intensity,harmonicity
0.025011,599.8,176.0,1219.7,121.9,2278.6,375.6,597.6,1207.9,2242.9,221.8,54.7,4.2
0.027011,598.6,168.3,1209.2,122.0,2256.9,432.8,598.6,1206.8,2235,221.8,54.9,5.5
0.029011,597.5,161.5,1193.8,127.0,2227.4,537.9,600.1,1205.1,2222.1,221.8,54.9,7.2
0.031011,598.2,155.8,1181.1,137.3,2179.8,666.6,602.2,1203,2204.9,221.9,55,9
0.033011,601.9,151.9,1178.7,153.3,2118.0,719.3,604.9,1200.8,2184.2,221.9,55,10.8
0.035011,608.0,148.9,1189.4,168.8,2087.1,670.1,608.2,1198.9,2160.8,222,55.1,12.1
0.037011,615.7,145.8,1208.5,180.7,2085.5,616.6,612,1197.5,2135.7,222,55.2,13
0.039011,622.3,141.9,1224.0,187.9,2093.5,596.9,616.2,1197.2,2110.2,222.1,55.4,13.6
0.041011,627.3,136.8,1229.3,194.4,2096.6,604.7,620.8,1198.3,2085.3,222.2,55.5,14
0.043011,630.0,131.6,1223.1,201.5,2084.4,624.3,625.9,1201.1,2062.1,222.2,55.6,14.5
0.045011,631.6,127.1,1211.3,208.3,2054.5,631.1,631.2,1206,2041.7,222.3,55.8,15.2
0.047011,634.0,124.6,1205.1,211.6,2025.0,605.0,636.8,1213.2,2025,222.5,55.9,16.2
0.049011,637.9,123.5,1207.7,210.6,2017.0,544.8,642.6,1222.8,2012.7,222.6,56.1,17.4
0.051011,643.6,123.7,1218.2,208.5,2036.7,463.4,648.4,1235.1,2005.5,222.7,56.3,18.6
0.053011,650.6,126.6,1235.1,212.6,2064.7,396.6,654.4,1249.9,2003.7,222.9,56.5,19.6
0.055011,658.6,131.8,1258.7,225.5,2085.9,358.4,660.3,1267.1,2007.3,223,56.7,20.1
0.057011,665.7,136.6,1284.6,242.3,2093.4,349.5,666,1286.5,2016.4,223.2,56.9,19.9
0.059011,671.4,139.7,1312.3,259.3,2092.3,352.3,671.7,1307.9,2030.5,223.4,57,19.1
0.061011,675.8,140.4,1338.2,270.4,2091.7,353.2,677,1330.8,2049,223.6,57.2,18.1
0.063011,680.4,140.5,1363.9,274.2,2099.7,350.4,682.1,1354.8,2071.2,223.9,57.3,17.1
0.065011,685.5,142.3,1387.0,271.8,2114.8,348.2,686.7,1379.5,2096.2,224.1,57.5,16.5
0.067011,691.5,146.6,1408.9,266.4,2129.8,350.3,691,1404.3,2122.8,224.4,57.7,16.2
0.069011,696.5,151.1,1426.9,261.1,2134.6,363.1,694.8,1428.7,2150.1,224.7,57.8,16.1
0.071011,699.5,153.8,1443.2,256.6,2124.9,393.5,698.1,1452.3,2176.7,224.9,57.9,16.2
0.073011,701.3,155.2,1461.4,251.1,2108.5,437.2,700.8,1474.6,2201.5,225.2,58,16.4
0.075011,704.0,157.5,1487.3,239.2,2103.5,498.6,703,1495.3,2223.4,225.6,58.1,16.6
0.077011,707.1,160.6,1514.3,217.9,2124.3,564.8,704.6,1514.1,2241.6,225.9,58.2,17.1
0.079011,709.5,163.2,1536.8,190.9,2167.8,611.0,705.7,1530.8,2255,226.2,58.2,17.7
0.081011,710.8,165.3,1552.0,168.2,2209.3,620.4,706.2,1545.2,2263.1,226.6,58.3,18.4
0.083011,711.3,167.3,1563.4,149.6,2235.2,616.1,706.1,1557.5,2265.5,226.9,58.2,19
0.085011,710.1,168.5,1571.4,136.0,2240.5,624.4,705.4,1567.7,2261.9,227.3,58.2,19.4
0.087011,706.6,168.4,1578.2,125.2,2232.9,653.4,704.3,1576.1,2252.5,227.7,58.1,19.7
0.089011,701.7,166.8,1584.3,117.1,2221.6,696.5,702.6,1583,2237.5,228.1,58,19.9
0.091011,695.7,164.1,1590.4,110.5,2211.8,749.8,700.5,1588.6,2217.5,228.5,57.9,19.9
0.093011,690.3,161.2,1595.1,107.5,2209.6,790.9,697.8,1593.5,2193.2,228.9,57.7,19.8
0.095011,686.5,159.5,1598.0,110.3,2221.1,796.4,694.7,1598.1,2165.5,229.3,57.5,19.4
0.097011,685.0,161.0,1599.5,120.3,2241.1,762.6,691.1,1602.8,2135.6,229.7,57.3,18.5
0.099011,684.7,167.4,1602.3,135.0,2252.5,723.5,687,1608.1,2104.8,230,57.1,17.3
0.101011,683.6,178.5,1610.2,146.4,2240.1,718.3,682.5,1614.4,2074.2,230.4,56.8,16
0.103011,680.0,189.7,1623.2,146.8,2196.5,753.6,677.4,1622,2045.3,230.8,56.6,14.8
0.105011,672.9,196.5,1637.5,141.1,2121.8,785.4,671.8,1631.2,2019.3,231.2,56.4,14.2
0.107011,664.9,197.1,1648.7,136.9,2055.6,774.4,665.7,1642.3,1997.5,231.5,56.3,14.2
0.109011,657.4,196.2,1658.1,135.4,2011.3,753.9,658.9,1655.1,1981.2,231.9,56.1,14.6
0.111011,650.4,198.0,1667.0,136.8,1982.0,753.1,651.6,1669.8,1971.2,232.2,55.9,15.3
0.113011,642.7,204.7,1677.4,141.2,1962.1,770.8,643.6,1686.2,1968.5,232.6,55.7,16
0.115011,634.9,215.4,1690.1,151.3,1950.2,792.3,634.8,1704,1973.7,232.9,55.4,16.5
0.117011,626.0,229.3,1709.4,175.6,1930.0,801.4,625.3,1722.9,1987.4,233.2,55.1,16.7
0.119011,616.7,243.4,1739.5,213.5,1892.5,797.0,615.1,1742.6,2009.7,233.4,54.8,16.9
0.121011,606.3,257.4,1788.0,246.1,1836.9,821.8,604,1762.6,2040.6,233.7,54.4,17.1
0.123011,595.2,267.6,1786.0,923.7,1837.3,241.6,592.2,1782.4,2079.9,233.9,54,17.2
0.125011,583.1,275.9,1754.9,1109.7,1877.2,221.2,579.6,1801.6,2127.3,234.2,53.6,17.2
0.127011,573.4,284.9,1764.8,1397.7,1904.4,199.1,566.2,1819.5,2182.1,234.4,53.1,17.1
0.129011,564.3,292.9,1879.4,1857.6,1918.7,178.4,552.1,1835.8,2243.5,234.6,52.7,16.8
0.131011,551.6,291.9,1920.2,171.6,2215.7,2242.3,537.4,1850.2,2310.6,234.7,52.3,16.5
0.133011,529.8,276.5,1913.3,189.3,2670.1,1996.6,522.2,1862.1,2382.4,234.9,52,16.3
0.135011,501.4,245.3,1900.9,235.7,2866.8,1514.5,506.6,1871.6,2457.7,235,51.7,16.3
0.137011,474.5,206.2,1878.5,282.3,2845.3,1172.5,490.7,1878.3,2535.3,235.1,51.5,16.4
0.139011,456.0,178.3,1861.9,263.4,2795.8,904.5,474.6,1882.3,2613.9,235.3,51.3,16.7
0.141011,441.2,162.1,1858.0,207.8,2798.3,740.9,458.7,1883.8,2692.5,235.4,51.1,17.1
0.143011,429.2,158.0,1855.6,160.5,2832.3,686.7,442.9,1882.8,2769.6,235.4,51,17.5
0.145011,419.3,162.6,1850.8,128.5,2889.6,713.7,427.7,1879.7,2844.3,235.5,50.9,17.6
0.147011,411.6,173.7,1846.9,108.5,2971.1,848.8,413,1874.8,2915.4,235.6,50.8,17.7
0.149011,405.9,188.9,1847.8,96.1,3047.0,1202.5,399.2,1868.6,2981.8,235.6,50.6,17.8
0.151011,399.2,211.6,1853.5,83.1,3061.2,1798.8,386.5,1861.5,3042.6,235.7,50.5,17.8
0.153011,390.8,241.8,1858.9,68.9,3170.0,348.1,375,1854.1,3097.1,235.7,50.3,17.5
0.155011,379.9,272.2,1860.2,57.9,3135.5,371.5,365,1846.8,3144.4,235.8,50,17
0.157011,368.2,288.7,1857.5,53.6,3128.4,340.1,356.5,1840.1,3183.9,235.8,49.7,16.1
0.159011,356.4,286.7,1851.3,53.9,3130.3,249.0,349.8,1834.4,3215.2,235.9,49.3,14.9
0.161011,345.6,272.0,1842.8,57.6,3126.0,164.2,344.9,1830.1,3237.8,235.9,48.9,13.5
0.163011,333.5,260.7,1832.1,67.1,3123.4,105.2,341.9,1827.4,3251.5,235.9,48.4,12.1
0.165011,319.2,280.8,1821.3,90.2,3128.0,77.0,340.9,1826.5,3256.1,236,47.9,10.7
