time,f1,b1,f2,b2,f3,b3,f1p,f2p,f3p,f0,intensity,harmonicity
0.026000,525.6,120.6,1557.5,44.1,1904.9,663.5,538.6,1570.4,1909.1,145.5,67.8,10
0.028000,536.9,117.3,1558.8,44.8,1918.3,721.9,541.4,1570.3,1915.2,145.8,68.2,9
0.030000,545.8,112.4,1559.3,49.0,1920.7,717.3,545.9,1569.9,1925.1,146.2,68.6,8
0.032000,554.2,108.1,1560.3,56.3,1927.1,710.4,551.9,1568.8,1938.6,146.7,68.9,7
0.034000,563.1,105.0,1564.1,68.6,1946.3,723.6,559,1566.4,1955.3,147.1,69.3,6.2
0.036000,572.1,101.9,1571.3,86.9,1974.7,749.3,567,1562.2,1974.6,147.5,69.6,5.9
0.038000,580.8,99.6,1578.6,110.3,2005.6,780.8,575.4,1555.7,1996.1,148,70,5.7
0.040000,589.4,99.6,1577.5,139.7,2035.4,788.6,583.7,1546.4,2019.2,148.5,70.3,5.8
0.042000,596.6,100.3,1560.2,171.8,2059.3,733.4,591.8,1534.1,2043.2,149,70.8,6.1
0.044000,602.4,98.7,1529.7,194.0,2077.2,643.3,599.2,1518.5,2067.5,149.4,71.2,6.6
0.046000,607.1,94.8,1495.9,203.2,2092.0,562.0,605.8,1499.8,2091.5,149.9,71.6,7.2
0.048000,610.6,89.5,1463.3,203.6,2106.5,500.7,611.3,1478.1,2114.6,150.4,72.1,8.2
0.050000,612.6,82.7,1434.4,195.7,2121.8,462.3,615.8,1454.1,2136.3,150.9,72.5,9.3
0.052000,614.2,75.6,1409.3,181.4,2141.8,446.4,619.1,1428.4,2156.2,151.4,72.9,10.5
0.054000,616.1,70.0,1386.8,165.9,2170.5,445.9,621.4,1401.8,2173.9,151.9,73.2,11.5
0.056000,618.0,65.8,1366.4,154.5,2200.0,450.1,622.8,1375.1,2189.1,152.3,73.6,12.1
0.058000,619.9,61.8,1348.6,150.7,2218.9,455.0,623.5,1349.2,2201.9,152.8,73.9,12.4
0.060000,621.7,58.5,1330.7,154.0,2225.4,456.8,623.7,1325,2212.1,153.3,74.3,12.5
0.062000,623.2,55.7,1310.1,156.8,2221.1,445.4,623.6,1303.2,2219.9,153.7,74.6,12.6
0.064000,624.4,52.8,1288.8,148.7,2211.5,418.7,623.5,1284.3,2225.5,154.2,74.9,12.7
0.066000,625.5,49.7,1270.9,128.9,2204.5,387.1,623.4,1268.7,2229,154.6,75.2,13.2
0.068000,626.4,47.0,1258.5,105.9,2204.6,359.4,623.6,1256.4,2230.9,155,75.5,14
0.070000,627.2,44.6,1250.8,86.5,2213.2,338.6,624,1247.4,2231.4,155.4,75.8,14.9
0.072000,628.0,42.5,1245.8,72.3,2228.7,324.6,624.8,1241.3,2231,155.8,76,15.8
0.074000,628.7,40.9,1242.1,62.5,2246.2,315.7,625.9,1237.7,2230,156.2,76.2,16.3
0.076000,629.4,39.4,1239.2,56.3,2257.1,310.5,627.3,1235.8,2228.6,156.6,76.4,16.4
0.078000,630.2,37.5,1237.6,53.7,2256.8,307.5,628.9,1235.2,2227.2,157,76.5,15.7
0.080000,630.9,35.6,1237.6,55.3,2247.8,300.5,630.5,1235,2225.9,157.3,76.6,14.8
0.082000,631.6,34.5,1237.3,61.3,2237.0,283.6,632.1,1234.7,2224.8,157.7,76.7,13.9
0.084000,632.5,34.4,1234.3,70.8,2227.6,263.7,633.6,1233.7,2223.9,158,76.8,13.4
0.086000,633.4,34.3,1228.1,82.8,2218.4,252.9,634.9,1231.7,2223.2,158.4,76.8,13.8
0.088000,633.8,33.6,1220.8,96.0,2209.3,251.8,636,1228.5,2222.5,158.7,76.9,15.1
0.090000,633.8,32.3,1214.0,107.5,2201.5,253.5,636.7,1224.1,2221.7,159,76.9,16.8
0.092000,634.0,31.6,1208.6,115.2,2196.5,254.1,637.3,1218.6,2220.6,159.4,76.9,18.5
0.094000,634.5,32.1,1205.2,118.5,2196.0,250.8,637.6,1212.4,2218.9,159.7,77,19.7
0.096000,635.6,33.3,1202.7,118.0,2200.5,243.0,637.7,1205.7,2216.4,160,77,20
0.098000,637.1,34.8,1200.3,116.0,2206.8,235.7,637.8,1199,2213.1,160.3,77,19.5
0.100000,638.7,36.2,1198.1,113.5,2212.2,231.6,637.8,1192.8,2208.7,160.6,77.1,18.5
0.102000,640.0,36.9,1195.2,108.4,2214.6,229.9,638,1187.4,2203.4,160.9,77.1,17.4
0.104000,640.9,36.7,1191.2,100.3,2212.8,231.4,638.2,1183.2,2197.1,161.2,77.1,16.5
0.106000,641.7,36.4,1187.2,92.0,2206.8,236.3,638.7,1180.3,2190,161.5,77.1,16.1
0.108000,642.3,36.0,1184.1,84.8,2198.7,243.6,639.3,1178.7,2182.3,161.8,77.1,15.9
0.110000,642.9,35.7,1181.8,79.0,2188.9,253.5,640,1178.5,2174.3,162,77,15.9
0.112000,643.4,35.7,1180.4,74.9,2176.8,264.0,640.9,1179.3,2166.4,162.3,76.9,15.9
0.114000,643.6,35.9,1179.8,71.9,2164.5,272.6,641.9,1180.9,2158.8,162.5,76.8,16.1
0.116000,643.6,36.6,1180.3,70.1,2153.7,282.5,642.8,1182.9,2152,162.8,76.6,16.2
0.118000,643.4,37.8,1181.7,70.0,2144.3,296.8,643.6,1185,2146.3,163,76.4,16.6
0.120000,642.7,39.1,1183.4,71.1,2135.7,312.2,644.2,1186.7,2142,163.2,76.2,17
0.122000,641.4,40.1,1184.7,73.6,2126.5,326.3,644.6,1187.9,2139.3,163.4,75.9,17.4
0.124000,639.7,41.5,1186.0,78.4,2116.0,339.5,644.8,1188.3,2138.4,163.6,75.6,17.6
