time,f1,b1,f2,b2,f3,b3,f1p,f2p,f3p,f0,intensity,harmonicity
0.025000,591.7,155.8,1989.8,184.4,3408.0,294.0,596.3,2007.6,3418,191.1,57.4,18.2
0.027000,596.4,150.7,2004.3,183.6,3413.7,285.7,598.4,2012.1,3417.8,190.9,57.6,18
0.029000,602.5,146.9,2019.3,178.4,3420.3,282.5,601.7,2019.6,3417.5,190.7,57.8,17.9
0.031000,609.1,144.1,2035.6,167.8,3424.4,285.6,606.2,2029.6,3417.1,190.5,57.9,17.9
0.033000,615.5,143.0,2051.9,155.1,3425.2,291.4,611.8,2042.1,3416.5,190.3,58,17.9
0.035000,620.9,144.1,2066.3,146.9,3423.0,295.5,618.3,2056.5,3415.9,190,58,17.8
0.037000,625.5,147.5,2078.7,146.2,3418.7,297.6,625.6,2072.5,3415.3,189.8,58,17.5
0.039000,630.7,152.9,2091.1,150.9,3413.4,300.8,633.6,2089.7,3414.6,189.5,58,17.1
0.041000,638.0,159.1,2104.7,155.8,3409.1,308.5,641.9,2107.5,3413.9,189.2,58,16.8
0.043000,648.2,165.6,2120.9,158.5,3405.6,323.3,650.5,2125.6,3413.2,189,57.9,16.6
0.045000,659.2,171.2,2139.0,160.1,3404.2,341.1,659.1,2143.4,3412.5,188.7,57.9,16.9
0.047000,668.8,174.4,2158.3,162.4,3406.0,350.9,667.6,2160.8,3411.8,188.4,57.9,17.9
0.049000,676.7,174.4,2177.9,164.8,3409.5,346.6,675.8,2177.3,3411.2,188.1,57.8,19.5
0.051000,684.3,171.8,2196.9,164.7,3412.5,333.8,683.4,2192.7,3410.7,187.7,57.8,21.2
0.053000,692.2,167.9,2213.5,159.9,3414.4,320.7,690.5,2206.8,3410.2,187.4,57.9,22.7
0.055000,699.9,163.8,2226.9,150.9,3414.4,311.7,696.8,2219.4,3409.7,187.1,57.9,23.5
0.057000,706.5,159.5,2237.3,139.0,3413.2,306.6,702.4,2230.7,3409.3,186.8,57.9,23.3
0.059000,710.9,155.4,2245.3,126.7,3412.0,301.9,707.1,2240.5,3409,186.4,57.9,22.6
0.061000,713.5,152.1,2250.6,116.8,3411.2,293.9,710.9,2249,3408.6,186.1,58,21.5
0.063000,714.8,149.7,2253.1,111.5,3409.7,281.8,713.9,2256.3,3408.2,185.7,58,20.4
0.065000,715.2,148.3,2254.2,111.0,3407.6,267.4,716.1,2262.6,3407.8,185.3,58,19.6
0.067000,714.4,147.8,2256.3,115.6,3406.8,255.7,717.6,2268.1,3407.4,185,58,19.1
0.069000,712.3,147.0,2260.8,123.8,3407.2,249.1,718.4,2273,3406.8,184.6,58,18.5
0.071000,710.9,145.1,2267.4,132.4,3406.6,245.8,718.7,2277.3,3406.2,184.2,58,18.1
0.073000,711.1,142.8,2274.5,138.6,3404.2,242.9,718.7,2281.5,3405.4,183.9,58,17.8
0.075000,712.7,140.4,2281.6,142.7,3401.2,240.6,718.3,2285.4,3404.6,183.5,58.1,17.7
0.077000,715.0,138.1,2288.9,146.4,3398.9,241.5,717.9,2289.4,3403.6,183.1,58.1,18.1
0.079000,717.6,135.7,2296.8,149.8,3397.8,246.3,717.4,2293.4,3402.4,182.7,58.1,18.8
0.081000,720.5,133.1,2305.2,153.2,3398.0,254.0,717,2297.5,3401.2,182.4,58.1,19.6
0.083000,723.0,130.2,2313.2,157.3,3398.6,262.5,716.9,2301.7,3399.8,182,58,20.1
0.085000,724.4,126.6,2319.1,162.9,3398.3,268.6,717.1,2305.8,3398.4,181.6,58,19.9
0.087000,724.8,122.9,2322.6,169.8,3396.7,270.8,717.6,2309.9,3396.9,181.3,58,18.7
0.089000,724.7,119.6,2324.0,176.5,3395.2,270.8,718.5,2313.8,3395.3,180.9,58,16.6
0.091000,724.3,117.6,2323.0,179.4,3395.7,271.5,719.9,2317.4,3393.8,180.6,57.9,14.3
0.093000,724.0,117.4,2320.3,179.1,3398.2,276.4,721.7,2320.6,3392.4,180.3,57.8,12.4
0.095000,724.0,118.8,2318.1,179.2,3401.2,284.5,723.9,2323.2,3391.1,179.9,57.7,11.6
0.097000,724.5,121.0,2317.6,181.4,3401.3,290.8,726.4,2325.2,3390.1,179.6,57.6,12.3
0.099000,726.1,124.4,2318.2,184.1,3395.3,292.5,729.1,2326.4,3389.2,179.3,57.4,14
0.101000,728.7,128.6,2319.0,185.6,3386.2,291.2,732,2326.8,3388.6,179.1,57.3,16.1
0.103000,731.7,133.8,2320.0,186.4,3380.0,290.1,734.9,2326.3,3388.4,178.8,57.1,18
0.105000,734.4,140.3,2320.6,187.2,3378.8,290.6,737.8,2324.9,3388.5,178.6,57,19.1
0.107000,736.7,147.6,2319.5,188.2,3381.5,291.2,740.6,2322.7,3389.1,178.3,56.8,19
0.109000,738.3,155.3,2316.2,190.0,3386.7,291.4,743,2319.7,3390,178.1,56.6,18.3
0.111000,739.5,164.6,2312.0,191.9,3392.9,290.8,745.2,2316.1,3391.4,177.9,56.5,17.3
0.113000,741.4,173.9,2308.9,189.5,3395.9,290.2,746.9,2311.8,3393.2,177.7,56.4,16.4
0.115000,744.6,181.4,2307.5,181.1,3394.3,292.7,748.1,2307.1,3395.5,177.6,56.3,16.1
0.117000,748.6,187.4,2305.7,170.4,3391.4,297.8,748.9,2302.1,3398,177.4,56.2,16.4
0.119000,752.7,192.3,2301.8,161.7,3393.4,299.5,749.1,2296.8,3400.9,177.3,56.1,17
0.121000,756.2,197.8,2295.6,157.3,3403.4,293.3,748.8,2291.5,3404.1,177.2,56.1,17.9
0.123000,757.7,204.0,2288.6,157.3,3416.0,279.2,748.1,2286.3,3407.4,177.1,56,18.9
0.125000,756.0,209.9,2283.1,160.7,3422.9,262.3,746.9,2281.3,3410.9,177,55.9,19.8
0.127000,751.2,215.6,2279.8,165.2,3423.2,248.2,745.5,2276.5,3414.4,176.9,55.8,20.8
0.129000,745.6,221.6,2277.6,167.6,3421.5,240.6,743.7,2272.1,3417.9,176.9,55.8,22
0.131000,741.2,228.2,2275.7,166.1,3421.1,241.0,741.9,2268.1,3421.2,176.8,55.7,23.2
0.133000,737.6,237.3,2273.4,162.3,3422.8,248.9,740,2264.6,3424.2,176.8,55.7,24.2
0.135000,735.4,248.3,2270.2,158.2,3425.3,259.0,738.2,2261.7,3427,176.7,55.6,24.9
0.137000,735.2,259.7,2265.3,155.4,3426.5,264.6,736.5,2259.2,3429.3,176.7,55.6,25.1
0.139000,736.1,270.8,2258.7,154.5,3426.9,264.3,735.2,2257.3,3431.3,176.7,55.5,25.1
0.141000,735.4,280.2,2251.1,155.3,3428.4,261.8,734.1,2255.9,3432.7,176.6,55.5,24.9
0.143000,731.3,288.1,2243.0,156.7,3431.9,261.8,733.5,2255.1,3433.5,176.6,55.4,24.5
0.145000,724.6,295.9,2234.3,157.9,3436.6,265.2,733.2,2254.8,3433.8,176.6,55.3,23.9
