time,f1,b1,f2,b2,f3,b3,f1p,f2p,f3p,f0,intensity,harmonicity
0.026000,340.7,123.2,1104.0,207.3,2827.5,338.3,367.6,1096.8,2805.9,225,52.6,12.3
0.028000,350.0,114.8,1097.8,165.3,2805.7,295.2,368.3,1096.6,2805.3,224.6,53.6,19.5
0.030000,360.5,102.1,1095.8,132.1,2784.7,265.7,369.4,1096.3,2804.3,224.1,54.2,18
0.032000,371.4,89.1,1095.7,106.6,2771.5,244.5,370.9,1095.8,2803.1,223.5,54.7,12.7
0.034000,379.7,78.7,1095.4,89.7,2770.8,235.7,372.8,1095.2,2801.6,223,55,8.5
0.036000,385.6,70.0,1093.5,77.0,2781.3,232.8,375,1094.4,2799.9,222.4,55.2,9.3
0.038000,389.0,62.8,1090.4,66.7,2795.9,224.3,377.4,1093.4,2798.2,221.8,55.3,11.7
0.040000,391.3,56.2,1087.0,56.9,2808.0,206.5,380,1092.2,2796.4,221.2,55.4,14.4
0.042000,392.8,51.4,1084.8,49.1,2814.6,187.5,382.6,1090.7,2794.8,220.6,55.5,17.2
0.044000,394.2,48.4,1083.9,43.2,2818.4,168.9,385.3,1089,2793.5,220,55.5,19.5
0.046000,395.4,47.2,1083.6,39.2,2819.2,150.5,388,1087.1,2792.4,219.3,55.6,21.1
0.048000,396.4,46.8,1083.2,35.8,2816.2,129.1,390.5,1084.9,2791.7,218.7,55.6,22.2
0.050000,397.0,46.5,1082.4,32.6,2810.8,106.5,392.9,1082.5,2791.5,218.1,55.6,22.9
0.052000,397.3,45.8,1081.1,29.5,2805.0,85.1,395,1079.9,2791.8,217.4,55.6,23.3
0.054000,397.4,44.4,1079.3,26.2,2799.7,68.4,396.8,1077.1,2792.6,216.8,55.6,23.7
0.056000,397.1,42.7,1077.2,23.2,2795.5,58.7,398.3,1074.2,2793.9,216.1,55.6,24
0.058000,396.8,41.1,1074.9,20.5,2791.7,53.6,399.5,1071.2,2795.9,215.5,55.6,24.3
0.060000,396.5,40.3,1072.8,18.5,2788.2,51.7,400.3,1068.3,2798.3,214.8,55.6,24.4
0.062000,396.3,40.4,1070.6,17.0,2785.3,52.1,400.8,1065.4,2801.1,214.2,55.5,24.4
0.064000,396.3,41.2,1068.8,16.1,2784.1,54.8,400.9,1062.7,2804.4,213.6,55.5,24.4
0.066000,396.3,42.1,1066.8,15.6,2785.8,62.7,400.7,1060.3,2807.9,213,55.5,24.3
0.068000,396.1,42.1,1064.8,15.3,2791.4,78.8,400.3,1058.2,2811.6,212.3,55.5,24.2
0.070000,395.5,41.0,1062.5,15.2,2801.5,108.1,399.5,1056.6,2815.4,211.7,55.4,24
0.072000,394.8,39.8,1060.2,15.2,2814.1,145.9,398.6,1055.5,2819.1,211.1,55.4,23.8
0.074000,394.1,38.7,1058.1,15.6,2824.9,180.2,397.5,1055,2822.6,210.5,55.4,23.5
0.076000,393.5,38.2,1056.3,16.5,2829.0,191.3,396.3,1055.1,2825.9,209.9,55.3,23.4
0.078000,393.1,38.2,1054.5,18.1,2830.5,181.9,395,1056,2828.7,209.3,55.2,23.1
0.080000,392.7,38.4,1053.0,20.1,2833.7,167.5,393.8,1057.7,2831.1,208.7,55.2,22.9
0.082000,392.4,38.5,1051.6,22.8,2838.4,155.3,392.5,1060.1,2832.8,208.2,55.1,22.7
0.084000,391.9,38.5,1050.7,26.4,2841.8,144.6,391.4,1063.4,2833.9,207.6,55,22.6
0.086000,391.3,38.7,1050.5,31.7,2842.5,131.0,390.4,1067.6,2834.3,207,54.9,22.8
0.088000,391.0,39.3,1051.8,39.4,2841.8,116.9,389.6,1072.5,2833.9,206.4,54.9,23.2
0.090000,391.2,40.7,1056.3,50.5,2841.3,105.2,388.9,1078.3,2832.8,205.9,54.8,23.7
0.092000,391.6,42.3,1065.3,63.2,2840.4,97.1,388.4,1084.9,2831,205.3,54.7,24.2
0.094000,392.2,43.7,1079.8,75.9,2837.3,89.6,388.1,1092.3,2828.5,204.7,54.7,24.6
0.096000,392.6,44.2,1097.7,85.1,2831.2,81.7,388,1100.3,2825.3,204.2,54.6,24.8
0.098000,392.8,43.5,1118.6,89.5,2822.9,72.7,388.1,1109.1,2821.6,203.6,54.6,24.8
0.100000,392.5,41.5,1138.7,87.1,2814.9,64.8,388.2,1118.4,2817.5,203.1,54.5,24.8
0.102000,391.9,38.7,1156.0,78.8,2808.4,58.9,388.6,1128.4,2813.1,202.5,54.5,24.7
0.104000,391.1,35.6,1170.0,67.5,2803.1,55.4,388.9,1139,2808.4,202,54.5,24.6
0.106000,390.4,33.3,1180.4,57.2,2799.0,53.8,389.4,1150.1,2803.6,201.4,54.4,24.6
0.108000,389.9,31.8,1189.2,48.5,2795.0,53.3,389.8,1161.7,2798.8,200.9,54.4,24.5
0.110000,389.6,31.0,1196.1,42.3,2791.0,54.2,390.3,1173.8,2794.1,200.4,54.4,24.5
0.112000,389.3,30.4,1201.6,37.9,2786.2,57.5,390.7,1186.5,2789.7,199.8,54.3,24.4
0.114000,388.9,30.1,1205.3,35.8,2781.2,63.4,391,1199.7,2785.5,199.3,54.3,24.3
0.116000,388.4,30.1,1207.8,36.3,2776.7,74.0,391.2,1213.4,2781.9,198.8,54.2,24
0.118000,387.9,30.5,1209.9,40.1,2773.9,90.9,391.2,1227.8,2778.7,198.3,54.2,23.6
0.120000,387.5,31.5,1213.2,48.8,2773.0,117.2,391.1,1242.8,2776,197.8,54.1,23
0.122000,387.3,33.0,1219.9,63.9,2773.0,149.0,390.9,1258.5,2773.9,197.3,54.1,22.5
0.124000,387.3,34.8,1234.8,87.1,2771.9,180.5,390.5,1274.9,2772.5,196.8,54,22.1
0.126000,387.3,35.8,1260.4,109.9,2770.3,197.1,389.9,1292.1,2771.6,196.3,53.9,22
0.128000,387.1,35.3,1295.2,121.6,2770.6,196.3,389.2,1310.1,2771.3,195.8,53.8,22
0.130000,386.5,34.2,1327.3,119.3,2773.2,187.3,388.3,1328.9,2771.5,195.4,53.8,22.2
0.132000,385.8,33.4,1355.0,112.6,2776.9,180.0,387.3,1348.5,2772.2,195,53.7,22.4
0.134000,385.1,33.5,1376.6,111.2,2780.3,178.1,386.2,1368.9,2773.4,194.5,53.6,22.6
0.136000,384.6,34.2,1396.8,120.2,2783.0,179.7,385,1390,2775,194.1,53.5,22.8
0.138000,384.2,34.9,1418.4,140.4,2784.7,181.0,383.8,1411.8,2776.9,193.7,53.5,22.9
0.140000,383.7,35.2,1448.5,163.1,2785.4,180.8,382.5,1434.3,2779,193.3,53.4,23
0.142000,382.9,34.3,1480.5,162.4,2784.5,179.8,381.2,1457.1,2781.4,193,53.3,23.1
0.144000,382.0,32.9,1504.8,139.7,2781.8,178.5,380,1480.3,2783.8,192.6,53.3,23.3
0.146000,381.4,32.0,1520.8,120.1,2779.8,177.8,378.8,1503.7,2786.3,192.3,53.2,23.6
0.148000,380.8,31.5,1536.0,109.6,2780.6,178.0,377.6,1526.9,2788.7,192,53.2,24.2
0.150000,380.3,31.2,1550.8,108.0,2784.1,178.9,376.5,1549.9,2791.1,191.7,53.1,24.8
0.152000,379.6,30.7,1565.7,114.0,2788.9,179.4,375.5,1572.4,2793.4,191.4,53.1,25.4
0.154000,378.8,30.3,1583.4,128.1,2793.7,177.1,374.6,1594.1,2795.5,191.1,53,25.6
0.156000,377.8,29.5,1605.3,144.3,2797.3,169.5,373.8,1614.7,2797.5,190.8,53,25.5
0.158000,376.4,28.0,1632.0,152.4,2800.3,155.8,373.1,1634.1,2799.3,190.6,52.9,25.2
0.160000,374.8,26.0,1654.8,145.9,2803.6,140.4,372.5,1651.9,2800.8,190.4,52.8,24.6
0.162000,373.0,24.1,1672.5,130.7,2807.7,127.6,371.9,1667.9,2802.2,190.2,52.6,23.7
0.164000,371.2,22.9,1685.3,115.4,2811.0,122.4,371.5,1681.8,2803.3,190,52.4,22.5
0.166000,369.4,22.3,1695.9,102.1,2812.5,127.2,371.2,1693.5,2804.3,189.8,52.2,20.7
0.168000,367.9,22.3,1703.1,93.0,2811.2,144.6,370.9,1702.8,2805,189.7,51.8,18.2
0.170000,366.4,23.0,1706.8,88.5,2806.5,179.6,370.7,1709.6,2805.5,189.5,51.2,15.3
0.172000,365.5,24.8,1706.2,90.8,2799.2,226.3,370.6,1713.7,2805.8,189.4,50.5,12.3
0.174000,365.3,29.2,1700.4,102.7,2789.8,275.2,370.6,1715.1,2805.9,189.3,49.5,9.8
