time,f1,b1,f2,b2,f3,b3,f1p,f2p,f3p,f0,intensity,harmonicity
0.025000,307.2,106.5,2325.1,359.5,2754.1,784.3,329.1,2268,2750.9,113.8,46.4,3.2
0.027000,315.9,78.7,2269.1,373.0,2687.5,467.3,328.9,2268,2753.2,113.6,47.3,17.3
0.029000,321.6,63.3,2232.6,292.2,2700.0,306.3,328.7,2268,2757,113.4,48,20.4
0.031000,325.2,61.7,2239.2,219.4,2733.4,234.9,328.4,2268,2762.3,113.2,48.6,17.3
0.033000,327.7,71.0,2256.4,185.4,2762.8,203.1,328.1,2268.1,2769,113.1,48.9,12.5
0.035000,330.6,81.0,2269.1,175.4,2781.1,192.0,327.6,2268.3,2777,112.9,49.2,10.5
0.037000,333.4,84.4,2276.6,172.5,2795.1,190.3,327.2,2268.7,2786.2,112.7,49.4,11.3
0.039000,335.1,83.8,2281.0,166.2,2812.0,189.7,326.6,2269.3,2796.6,112.5,49.5,11.9
0.041000,334.8,83.0,2282.7,149.8,2835.0,183.7,326.1,2270.1,2807.9,112.4,49.5,12.3
0.043000,332.6,81.4,2280.8,124.2,2857.3,168.4,325.5,2271.3,2820,112.2,49.5,12.6
0.045000,330.3,75.8,2276.2,99.8,2867.6,149.7,324.9,2272.8,2832.9,112,49.5,13
0.047000,329.0,67.6,2271.7,82.9,2867.7,135.2,324.3,2274.8,2846.4,111.9,49.5,13.2
0.049000,327.9,61.6,2268.9,72.5,2867.3,124.4,323.7,2277.2,2860.2,111.7,49.5,13.4
0.051000,326.3,60.8,2270.1,70.0,2875.7,117.7,323.1,2280.2,2874.4,111.6,49.6,13.6
0.053000,325.3,62.6,2275.8,73.2,2891.2,110.5,322.5,2283.7,2888.7,111.4,49.7,13.7
0.055000,325.4,61.1,2283.2,72.6,2903.9,101.6,322,2287.7,2903,111.3,49.7,13.8
0.057000,325.3,57.4,2290.2,64.1,2914.5,95.3,321.5,2292.4,2917.2,111.2,49.8,14
0.059000,324.0,55.1,2297.9,53.2,2928.9,94.6,321.1,2297.6,2931.1,111.1,49.8,14.2
0.061000,321.8,54.7,2306.4,44.8,2949.7,100.2,320.7,2303.5,2944.7,111,49.9,14.3
0.063000,320.3,53.5,2313.1,39.7,2970.1,107.2,320.4,2309.8,2957.8,110.9,49.9,14.5
0.065000,319.8,50.9,2317.0,36.8,2981.8,110.4,320.1,2316.7,2970.4,110.8,49.9,14.7
0.067000,319.1,49.5,2319.7,36.0,2987.4,110.9,319.8,2324.1,2982.3,110.8,49.9,14.9
0.069000,318.2,50.2,2323.2,39.4,2996.2,115.2,319.7,2331.9,2993.6,110.7,49.9,15.1
0.071000,317.8,50.7,2329.9,49.1,3014.4,127.3,319.5,2340,3004.2,110.6,49.9,15.3
0.073000,318.2,48.6,2341.9,61.4,3035.4,141.2,319.4,2348.5,3014.1,110.6,49.9,15.6
0.075000,318.1,45.6,2358.4,66.4,3048.8,154.9,319.4,2357,3023.2,110.6,49.8,16
0.077000,317.4,43.7,2375.4,63.8,3054.4,178.6,319.3,2365.7,3031.6,110.5,49.8,16.6
0.079000,316.7,43.0,2388.9,60.1,3057.0,227.8,319.3,2374.3,3039.2,110.5,49.7,17.4
0.081000,317.0,41.7,2395.2,56.1,3059.1,308.4,319.3,2382.9,3046.2,110.5,49.7,18.2
0.083000,317.2,39.0,2396.1,49.8,3054.7,375.3,319.3,2391.2,3052.5,110.5,49.6,18.9
0.085000,316.5,36.8,2398.2,43.6,3044.3,360.9,319.3,2399.2,3058.2,110.5,49.6,19.5
0.087000,315.6,36.8,2404.6,41.0,3038.6,299.4,319.3,2406.8,3063.4,110.5,49.6,20
0.089000,315.8,37.5,2412.7,43.3,3038.5,243.3,319.3,2413.9,3068,110.5,49.5,20.4
0.091000,316.9,36.5,2417.5,48.2,3037.5,199.8,319.3,2420.5,3072.3,110.5,49.4,20.7
0.093000,317.2,35.0,2417.4,52.0,3032.6,173.1,319.3,2426.4,3076.1,110.5,49.4,20.9
0.095000,316.6,35.6,2418.0,56.3,3029.0,166.7,319.2,2431.6,3079.7,110.5,49.3,20.9
0.097000,316.6,38.4,2423.9,67.6,3030.3,173.7,319.2,2436,3083,110.5,49.2,20.6
0.099000,318.0,40.3,2436.1,92.5,3039.1,180.9,319.1,2439.7,3086.2,110.5,49.1,20.1
0.101000,319.3,41.7,2457.1,133.1,3058.6,179.2,319,2442.6,3089.3,110.6,49,19.5
0.103000,319.2,45.2,2476.4,174.0,3079.5,180.6,319,2444.7,3092.3,110.6,48.9,18.8
0.105000,318.7,56.5,2473.4,173.3,3103.5,180.3,318.9,2446.1,3095.3,110.6,48.8,18.2
0.107000,319.5,73.6,2458.1,145.9,3120.1,164.5,318.8,2446.6,3098.4,110.7,48.7,17.5
0.109000,321.1,83.9,2445.6,122.4,3123.9,140.6,318.8,2446.5,3101.5,110.7,48.7,16.8
0.111000,321.5,89.4,2439.7,104.3,3124.1,114.8,318.8,2445.7,3104.6,110.7,48.6,16.1
0.113000,321.2,108.1,2441.3,90.8,3126.9,89.5,318.8,2444.3,3107.9,110.8,48.7,15.4
0.115000,320.8,147.5,2442.6,81.1,3129.0,73.8,319,2442.3,3111.3,110.8,48.7,14.9
0.117000,321.3,166.0,2433.3,72.9,3124.7,76.3,319.1,2439.9,3114.8,110.8,48.7,14.4
0.119000,322.4,149.5,2420.9,62.9,3118.3,89.6,319.4,2437.1,3118.4,110.9,48.8,13.9
0.121000,321.9,135.0,2414.4,54.6,3120.6,100.4,319.7,2434,3122,110.9,48.9,13.5
0.123000,321.3,129.9,2413.2,51.5,3136.5,107.9,320.2,2430.7,3125.7,110.9,49,13.4
0.125000,322.6,126.2,2415.4,53.1,3160.3,109.5,320.8,2427.3,3129.4,110.9,49.1,13.7
0.127000,324.9,114.7,2416.7,54.7,3175.6,108.5,321.5,2423.8,3133.1,110.9,49.1,14.5
0.129000,325.5,99.8,2414.5,52.3,3179.6,110.7,322.3,2420.3,3136.8,110.9,49.2,15.9
0.131000,325.1,91.1,2412.0,49.0,3178.0,108.4,323.2,2416.9,3140.4,110.9,49.2,17.5
0.133000,325.9,90.3,2412.4,50.2,3174.2,101.0,324.3,2413.6,3143.8,110.9,49.2,18.9
0.135000,328.1,89.9,2415.6,55.9,3170.1,96.1,325.4,2410.5,3147.1,110.9,49.3,19.7
0.137000,329.6,83.9,2417.4,59.4,3168.1,93.7,326.8,2407.6,3150.2,110.9,49.3,19.9
0.139000,329.6,76.3,2415.7,58.2,3168.4,90.9,328.2,2405,3153.1,110.8,49.4,19.5
0.141000,329.6,71.2,2412.4,57.2,3168.4,87.7,329.7,2402.6,3155.7,110.8,49.4,18.9
0.143000,331.1,67.6,2408.9,60.4,3165.7,87.8,331.3,2400.4,3158,110.7,49.4,18.4
0.145000,332.9,62.7,2406.1,64.8,3162.1,90.8,333,2398.5,3160.1,110.6,49.5,18
0.147000,333.5,58.0,2403.9,67.1,3159.7,98.6,334.7,2396.7,3161.8,110.5,49.5,18.1
0.149000,333.5,57.7,2400.7,72.3,3154.8,120.4,336.5,2395.1,3163.2,110.4,49.6,18.3
0.151000,334.6,63.7,2395.3,83.7,3143.8,156.9,338.4,2393.6,3164.2,110.3,49.6,18.6
0.153000,336.6,70.0,2390.0,90.2,3135.6,182.0,340.2,2392.2,3164.9,110.1,49.6,18.7
0.155000,338.1,72.3,2388.6,85.2,3137.9,180.2,342,2390.8,3165.3,110,49.7,18.4
0.157000,338.9,76.6,2390.8,76.9,3139.0,166.4,343.8,2389.2,3165.3,109.8,49.7,17.7
0.159000,339.9,90.3,2393.3,71.9,3123.4,162.5,345.5,2387.6,3165.1,109.6,49.8,16.7
0.161000,341.7,107.3,2391.1,66.8,3093.7,164.8,347.1,2385.7,3164.6,109.4,49.8,15.4
0.163000,343.7,112.3,2385.1,57.0,3075.3,160.8,348.7,2383.6,3163.8,109.2,49.9,14.3
0.165000,345.1,107.2,2379.6,46.2,3074.7,157.6,350.1,2381.2,3162.8,108.9,50,13.4
0.167000,346.3,105.9,2375.9,39.0,3085.5,162.3,351.4,2378.4,3161.6,108.6,50,12.8
0.169000,348.2,116.6,2373.0,37.8,3103.0,177.8,352.6,2375.2,3160.2,108.4,50.1,12.4
0.171000,350.7,128.8,2368.6,39.4,3119.1,189.1,353.6,2371.6,3158.6,108.1,50.1,12.1
0.173000,352.9,125.7,2361.5,37.6,3129.5,186.4,354.5,2367.5,3157,107.7,50.1,11.8
0.175000,354.7,113.3,2355.0,32.3,3141.2,180.6,355.2,2363,3155.3,107.4,50.1,11.5
0.177000,356.9,105.5,2351.5,27.9,3165.2,182.4,355.8,2358,3153.6,107.1,50.1,11.1
0.179000,359.8,106.9,2350.4,27.6,3207.4,188.5,356.2,2352.5,3151.8,106.7,50,10.7
0.181000,362.3,107.6,2347.8,30.5,3243.3,182.3,356.4,2346.7,3150,106.3,50,10.3
0.183000,363.2,97.0,2339.6,34.9,3249.9,182.4,356.5,2340.5,3148.3,105.9,49.9,10
0.185000,363.6,82.2,2327.7,39.1,3237.4,196.2,356.5,2334.1,3146.6,105.5,49.8,9.9
0.187000,364.6,73.5,2317.4,44.8,3219.4,207.5,356.4,2327.4,3145,105,49.7,10.2
0.189000,365.7,69.9,2311.7,58.0,3215.4,203.8,356.1,2320.6,3143.5,104.6,49.6,10.7
0.191000,365.7,64.5,2310.7,82.7,3227.4,189.7,355.8,2313.7,3142.1,104.2,49.4,11.3
0.193000,364.7,56.3,2311.6,116.6,3236.5,179.5,355.4,2306.9,3140.8,103.7,49.2,11.7
0.195000,363.8,49.3,2308.6,151.6,3234.2,188.1,354.9,2300.2,3139.6,103.2,49,11.8
0.197000,362.9,48.2,2299.7,175.4,3224.1,226.1,354.4,2293.8,3138.5,102.8,48.8,11.3
0.199000,361.0,53.3,2292.4,183.5,3210.4,313.9,353.9,2287.7,3137.6,102.3,48.5,10.4
0.201000,357.9,58.1,2289.9,184.4,3179.6,452.3,353.4,2282.1,3136.7,101.9,48.2,9.4
0.203000,354.8,58.2,2285.8,187.7,3112.9,583.8,353,2277,3136,101.4,47.8,8.4
0.205000,352.4,56.5,2279.4,201.7,3047.8,669.5,352.5,2272.6,3135.4,101,47.2,7.4
0.207000,350.4,58.2,2276.1,231.2,3040.9,741.9,352.2,2268.8,3134.9,100.5,46.6,6.4
0.209000,347.2,63.0,2274.9,286.4,3078.1,800.3,351.9,2265.8,3134.5,100.1,45.8,5.4
0.211000,341.4,65.0,2267.7,365.7,3086.9,786.0,351.6,2263.6,3134.3,99.7,45,4.4
0.213000,334.9,64.0,2253.6,429.4,3043.8,706.5,351.5,2262.3,3134.1,99.3,44.1,3.6
0.215000,328.5,65.7,2236.7,456.9,2973.7,613.2,351.4,2261.9,3134,98.9,43.1,3.2
