time,f1,b1,f2,b2,f3,b3,f1p,f2p,f3p,f0,intensity,harmonicity
0.026011,557.3,199.1,1050.8,178.9,3188.3,271.4,599.2,1099,3148.6,204.5,62.6,16.5
0.028011,577.9,178.9,1074.7,180.1,3181.1,251.9,601.5,1101.8,3148.4,204.6,63,16.3
0.030011,595.9,158.1,1100.2,173.7,3171.0,237.5,605.2,1106.4,3148.1,204.6,63.3,15.9
0.032011,611.1,139.6,1124.4,161.1,3159.7,228.6,610.4,1112.7,3147.6,204.7,63.7,15.6
0.034011,623.6,124.5,1145.1,145.5,3148.7,224.1,616.9,1120.6,3147,204.8,64.1,15.3
0.036011,633.6,113.2,1161.5,130.6,3139.2,223.3,624.6,1130,3146.3,204.9,64.4,15.2
0.038011,641.5,106.2,1173.4,119.2,3133.4,226.3,633.4,1140.7,3145.5,204.9,64.7,15
0.040011,648.7,102.9,1182.3,111.2,3131.6,232.5,643.2,1152.5,3144.6,205,65,14.9
0.042011,656.5,103.4,1189.4,106.4,3132.0,237.9,653.8,1165.3,3143.6,205.1,65.1,14.9
0.044011,666.0,107.3,1196.1,104.7,3131.7,239.2,665,1178.9,3142.5,205.1,65.2,14.9
0.046011,677.9,114.2,1202.8,106.1,3129.5,236.3,676.8,1192.9,3141.4,205.2,65.3,15
0.048011,692.1,123.0,1209.5,111.1,3126.4,230.7,688.8,1207.3,3140.3,205.2,65.2,15.1
0.050011,708.3,131.8,1215.8,119.7,3123.4,223.7,701,1221.8,3139.3,205.3,65.2,15.2
0.052011,724.2,138.6,1222.1,131.1,3121.3,217.6,713.2,1236.3,3138.2,205.3,65.1,15.4
0.054011,739.5,143.3,1230.1,145.3,3120.1,213.7,725.2,1250.4,3137.3,205.4,65.1,15.9
0.056011,752.4,145.6,1240.4,159.4,3119.8,211.9,736.9,1264.1,3136.5,205.4,65,16.6
0.058011,763.0,145.3,1253.2,170.5,3119.7,209.8,748.1,1277.2,3135.8,205.4,65,17.7
0.060011,771.6,143.0,1267.4,176.8,3120.0,206.2,758.8,1289.6,3135.4,205.5,65,19.1
0.062011,778.7,139.2,1281.8,178.6,3122.2,202.7,768.7,1301.1,3135.2,205.5,65,20.4
0.064011,784.5,134.9,1295.8,176.4,3127.7,202.3,777.9,1311.6,3135.3,205.5,65.1,21.7
0.066011,789.5,131.0,1308.9,171.0,3136.2,205.8,786.3,1321.2,3135.8,205.5,65.1,22.6
0.068011,793.9,128.1,1320.2,164.2,3144.7,209.1,793.8,1329.8,3136.7,205.6,65.1,23.5
0.070011,798.0,126.2,1330.1,157.4,3150.0,207.2,800.3,1337.4,3138.1,205.6,65.1,24.2
0.072011,801.6,125.2,1338.2,152.1,3151.5,200.4,806,1344,3140,205.6,65.1,24.8
0.074011,804.6,124.6,1345.5,147.3,3153.7,194.6,810.8,1349.6,3142.5,205.6,65,25.4
0.076011,807.2,124.0,1352.8,141.8,3159.1,193.0,814.7,1354.4,3145.6,205.6,65,25.9
0.078011,809.7,123.5,1360.2,135.4,3165.9,193.1,817.9,1358.3,3149.3,205.6,65,26.3
0.080011,812.2,122.9,1367.1,128.8,3171.0,191.7,820.3,1361.6,3153.6,205.6,64.9,26.7
0.082011,814.5,122.6,1372.9,123.1,3173.9,188.6,822.1,1364.2,3158.7,205.6,64.9,27
0.084011,816.1,123.1,1377.4,119.2,3176.7,186.6,823.3,1366.4,3164.5,205.6,64.9,27.2
0.086011,817.0,125.0,1381.1,116.8,3181.5,187.7,824,1368.3,3170.9,205.6,64.8,27.4
0.088011,817.2,127.7,1384.0,115.5,3188.3,190.7,824.4,1369.9,3178.1,205.6,64.8,27.4
0.090011,817.2,130.6,1386.6,114.4,3196.4,193.3,824.6,1371.4,3186,205.6,64.7,27.3
0.092011,817.4,133.1,1389.4,113.1,3203.9,194.4,824.6,1372.8,3194.6,205.6,64.6,27.2
0.094011,818.0,134.7,1392.6,111.1,3209.7,195.8,824.5,1374.3,3203.7,205.6,64.5,27.2
0.096011,819.2,136.0,1395.5,108.8,3214.4,200.1,824.5,1376,3213.5,205.6,64.4,27.4
0.098011,820.3,138.0,1397.3,107.0,3220.2,208.3,824.7,1377.8,3223.8,205.5,64.2,27.8
0.100011,820.9,141.8,1397.7,106.5,3229.2,219.4,825,1379.9,3234.6,205.5,64,28.4
0.102011,821.3,147.1,1397.0,106.8,3238.4,228.5,825.7,1382.3,3245.8,205.5,63.9,28.8
0.104011,822.2,153.6,1395.8,107.7,3243.9,233.7,826.6,1384.9,3257.2,205.5,63.7,28.7
0.106011,824.0,162.0,1394.0,110.4,3246.9,237.2,827.9,1387.8,3268.9,205.5,63.5,27.8
0.108011,827.1,172.8,1390.9,116.4,3253.3,241.5,829.7,1391,3280.7,205.5,63.3,26.1
0.110011,832.0,183.6,1386.4,125.4,3266.3,245.9,831.8,1394.3,3292.5,205.4,63.1,23.8
0.112011,839.0,189.5,1382.6,134.0,3284.5,247.4,834.2,1397.7,3304.3,205.4,62.9,21.5
0.114011,846.8,188.0,1381.8,138.6,3304.8,244.6,837.1,1401.1,3315.8,205.4,62.8,19.7
0.116011,854.6,181.3,1384.5,138.5,3326.6,238.3,840.3,1404.5,3327.1,205.4,62.6,18.7
0.118011,861.0,173.7,1389.1,133.7,3345.5,232.4,843.8,1407.8,3337.9,205.4,62.4,18.3
0.120011,865.8,168.3,1393.9,126.1,3358.4,230.7,847.5,1410.9,3348.3,205.4,62.3,18.2
0.122011,868.7,166.2,1397.9,118.1,3366.2,233.8,851.4,1413.7,3358.1,205.3,62.1,18.5
0.124011,869.8,167.4,1401.0,111.5,3372.3,238.4,855.5,1416.1,3367.2,205.3,61.9,19.1
0.126011,869.7,171.0,1403.3,107.0,3379.9,240.7,859.5,1418.1,3375.6,205.3,61.8,20
0.128011,869.6,176.2,1404.9,104.4,3389.9,240.3,863.6,1419.5,3383.1,205.3,61.6,21.4
0.130011,870.3,182.4,1406.1,103.3,3401.0,239.6,867.5,1420.5,3389.9,205.3,61.5,23.1
0.132011,872.1,188.1,1407.5,103.2,3408.5,241.5,871.3,1420.9,3395.7,205.3,61.4,24.9
0.134011,874.5,192.7,1409.6,103.9,3409.8,247.4,874.8,1420.8,3400.7,205.3,61.3,26.5
0.136011,876.9,196.1,1412.2,105.0,3406.8,256.2,878,1420.1,3404.7,205.4,61.2,27.5
0.138011,878.4,198.6,1414.7,106.0,3404.1,267.6,880.9,1419,3407.8,205.4,61.1,28.2
0.140011,878.9,200.7,1417.0,106.8,3404.3,282.4,883.4,1417.5,3410,205.4,61,28.7
0.142011,878.5,202.9,1419.1,107.1,3406.5,298.7,885.5,1415.7,3411.3,205.4,60.9,29
0.144011,878.0,205.5,1421.1,106.9,3408.1,309.3,887.1,1413.7,3411.8,205.5,60.9,29.3
0.146011,877.7,208.6,1422.8,106.6,3408.0,311.3,888.3,1411.6,3411.5,205.5,60.8,29.4
0.148011,877.6,212.3,1424.1,107.2,3406.9,308.7,889,1409.7,3410.5,205.6,60.8,29.3
0.150011,877.6,216.8,1424.8,109.4,3406.1,307.4,889.3,1408,3408.9,205.6,60.7,29
0.152011,877.8,222.2,1425.0,113.3,3406.2,309.2,889.1,1406.7,3406.8,205.7,60.7,28.8
0.154011,878.6,228.2,1425.0,118.2,3407.2,312.4,888.6,1406,3404.1,205.7,60.6,28.5
0.156011,879.7,234.2,1425.5,123.2,3408.2,316.3,887.7,1406.1,3401.1,205.8,60.6,28.3
0.158011,880.4,238.9,1427.1,127.5,3408.0,324.1,886.6,1407.1,3397.9,205.9,60.5,28.1
0.160011,880.2,242.0,1429.9,131.3,3404.8,339.3,885.1,1409.2,3394.4,206,60.5,27.9
0.162011,879.3,242.7,1433.5,134.9,3396.8,357.0,883.5,1412.5,3390.9,206,60.5,27.7
0.164011,877.6,242.2,1437.4,139.6,3386.5,369.2,881.7,1417.2,3387.3,206.1,60.4,27.6
0.166011,875.2,242.4,1441.2,146.9,3380.0,375.7,879.9,1423.3,3383.8,206.2,60.3,27.4
0.168011,872.8,243.9,1444.8,156.8,3379.3,381.9,878,1431,3380.5,206.3,60.3,27.3
0.170011,872.0,246.2,1449.1,168.5,3381.6,390.5,876.1,1440.2,3377.4,206.5,60.2,27.2
0.172011,873.6,248.3,1455.2,180.5,3382.2,402.0,874.3,1451,3374.6,206.6,60.1,27.2
0.174011,876.8,249.3,1463.3,191.3,3379.1,415.1,872.7,1463.3,3372,206.7,60,27.1
0.176011,879.8,249.1,1472.9,201.4,3373.5,428.3,871.1,1477,3369.9,206.8,60,27
0.178011,881.3,247.3,1482.3,210.8,3367.2,438.1,869.8,1492.2,3368.1,206.9,59.9,27
0.180011,881.4,243.9,1491.3,220.1,3360.9,445.2,868.7,1508.6,3366.7,207.1,59.8,27
0.182011,881.5,239.0,1501.1,229.5,3354.0,453.3,867.8,1526,3365.7,207.2,59.8,26.9
0.184011,881.8,234.0,1512.9,239.7,3346.5,464.2,867.1,1544.3,3365,207.4,59.7,26.6
0.186011,882.0,229.9,1527.6,251.8,3341.6,475.2,866.7,1563.3,3364.7,207.5,59.7,26
0.188011,881.2,227.3,1545.1,266.3,3343.5,482.4,866.5,1582.7,3364.8,207.7,59.6,24.9
0.190011,879.4,225.5,1563.6,280.9,3352.0,483.8,866.4,1602.2,3365.1,207.8,59.5,23.6
0.192011,877.0,222.7,1583.4,293.2,3363.0,477.4,866.6,1621.5,3365.7,207.9,59.4,22.4
0.194011,874.9,217.6,1603.4,300.3,3370.9,462.2,866.9,1640.4,3366.5,208.1,59.3,21.5
0.196011,873.4,209.9,1624.4,303.7,3373.7,441.5,867.3,1658.6,3367.4,208.2,59.2,21.2
0.198011,872.4,200.6,1647.3,307.0,3374.0,422.3,867.8,1675.8,3368.4,208.4,59.1,21.4
0.200011,871.3,191.5,1672.7,311.0,3375.7,410.4,868.4,1691.7,3369.5,208.5,59.1,22
0.202011,869.6,184.3,1699.8,313.6,3379.8,407.5,868.9,1706.1,3370.5,208.7,59,22.6
0.204011,867.2,180.3,1725.2,313.5,3383.7,411.3,869.5,1718.7,3371.5,208.8,58.8,22.9
0.206011,863.8,178.9,1749.1,312.2,3384.4,418.8,870,1729.3,3372.3,208.9,58.7,22.8
0.208011,859.9,179.7,1770.3,310.6,3381.0,429.1,870.4,1737.7,3373,209.1,58.5,22.5
0.210011,855.7,182.6,1788.8,307.6,3375.8,445.3,870.7,1743.8,3373.6,209.2,58.3,22
0.212011,851.2,188.6,1803.9,302.4,3371.4,473.9,870.9,1747.6,3373.9,209.3,58.1,21.2
0.214011,846.2,199.0,1815.5,298.5,3366.6,521.5,870.9,1748.8,3374,209.4,57.7,20.1
