time,f1,b1,f2,b2,f3,b3,f1p,f2p,f3p,f0,intensity,harmonicity
0.025011,802.4,189.5,1846.5,506.0,3046.1,447.3,875.9,1843,3031.2,234.1,61.8,12.7
0.027011,815.7,210.4,1837.7,513.3,3047.8,436.8,876.5,1842.7,3031.3,233.8,61.6,14.6
0.029011,831.9,228.8,1832.8,516.7,3046.8,436.4,877.6,1842.4,3031.4,233.5,61.4,16.5
0.031011,848.5,245.0,1826.7,527.8,3042.3,449.3,879.1,1841.8,3031.5,233.2,61.2,18.2
0.033011,863.2,260.0,1818.8,548.8,3035.5,468.6,881,1841.1,3031.7,232.9,61,19.6
0.035011,876.5,272.9,1813.0,571.5,3028.6,484.5,883.3,1840.2,3031.9,232.5,60.9,20.3
0.037011,890.8,280.0,1815.0,583.8,3023.7,494.2,885.8,1839,3032.2,232.2,60.8,20.2
0.039011,905.1,278.8,1824.9,579.1,3022.4,500.9,888.7,1837.7,3032.5,231.8,60.6,19.3
0.041011,918.6,271.8,1836.7,564.2,3025.1,507.1,891.8,1836,3032.8,231.4,60.5,18.1
0.043011,930.1,262.7,1844.8,547.9,3030.7,509.1,895.1,1834.1,3033.2,231.1,60.4,17
0.045011,939.1,253.5,1846.1,533.4,3034.9,501.1,898.6,1831.9,3033.6,230.7,60.3,16.7
0.047011,945.3,245.3,1841.1,519.3,3034.1,482.7,902.2,1829.3,3034,230.3,60.2,17.2
0.049011,948.6,240.1,1834.8,505.3,3030.1,459.9,905.8,1826.5,3034.5,230,60.1,18.4
0.051011,949.0,240.4,1833.4,493.1,3027.4,444.5,909.4,1823.2,3035.1,229.6,60,19.7
0.053011,947.1,246.4,1836.6,478.8,3029.6,441.1,913,1819.6,3035.7,229.3,59.9,20.9
0.055011,943.5,255.5,1839.5,457.4,3036.2,446.3,916.4,1815.7,3036.4,228.9,59.9,21.4
0.057011,939.5,263.2,1837.9,432.2,3041.7,453.8,919.7,1811.3,3037.1,228.6,59.8,21.3
0.059011,937.0,267.1,1831.2,414.1,3042.3,462.3,922.8,1806.7,3037.8,228.2,59.7,20.6
0.061011,935.8,268.3,1820.3,406.5,3038.5,472.2,925.6,1801.7,3038.7,227.9,59.7,19.7
0.063011,935.2,269.2,1807.8,398.7,3030.8,481.2,928.2,1796.4,3039.5,227.6,59.6,18.8
0.065011,934.3,271.7,1796.3,381.3,3020.8,489.2,930.4,1790.8,3040.5,227.3,59.5,18.2
0.067011,933.5,278.2,1788.1,363.1,3015.0,498.6,932.3,1785,3041.5,227,59.5,18
0.069011,932.2,289.4,1782.6,354.8,3018.6,510.6,933.8,1779,3042.6,226.8,59.4,17.8
0.071011,929.4,304.0,1777.7,354.9,3029.9,521.7,934.9,1772.9,3043.7,226.5,59.4,17.8
0.073011,924.1,320.3,1771.1,355.2,3044.0,525.8,935.6,1766.7,3044.9,226.3,59.3,18
0.075011,918.2,334.4,1762.8,351.0,3054.7,518.3,935.9,1760.5,3046.2,226.1,59.2,18.3
0.077011,914.2,345.4,1753.2,344.7,3059.9,504.0,935.7,1754.4,3047.6,225.9,59.2,18.9
0.079011,913.8,354.1,1743.3,340.9,3059.4,494.8,935.2,1748.4,3049,225.7,59.1,19.6
0.081011,916.0,362.8,1734.6,342.3,3055.3,500.5,934.2,1742.6,3050.4,225.5,59.1,20.5
0.083011,918.0,373.4,1727.7,348.6,3051.3,522.3,932.8,1737.1,3051.9,225.4,59,21.5
0.085011,917.7,386.8,1721.5,358.8,3052.0,551.0,931.1,1732,3053.5,225.2,59,22.4
0.087011,914.5,401.3,1715.3,371.6,3060.3,572.2,929,1727.2,3055,225.1,58.9,23.4
0.089011,910.0,416.0,1708.1,385.8,3072.6,589.4,926.7,1723,3056.6,225,58.9,24.6
0.091011,907.4,426.9,1700.7,394.7,3078.2,614.6,924,1719.3,3058.3,224.9,58.9,25.7
0.093011,907.8,432.8,1694.3,394.7,3071.5,647.1,921.2,1716.2,3059.9,224.8,58.9,26.7
0.095011,908.7,436.8,1689.1,390.6,3058.6,675.3,918.1,1713.8,3061.5,224.7,58.9,27.4
0.097011,907.9,442.2,1685.3,388.3,3048.0,701.0,914.9,1712.1,3063.1,224.6,58.9,27.9
0.099011,905.7,448.0,1685.1,388.8,3044.2,728.3,911.6,1711.2,3064.6,224.5,58.9,28.1
0.101011,903.8,453.0,1690.0,389.2,3049.0,755.0,908.2,1711,3066.1,224.5,58.9,28.1
0.103011,902.1,457.1,1699.4,387.2,3065.3,771.5,904.9,1711.6,3067.5,224.4,58.9,28
0.105011,899.8,461.2,1710.6,383.5,3091.2,766.5,901.5,1713,3068.8,224.4,58.9,27.8
0.107011,897.7,464.3,1720.8,380.2,3112.9,737.1,898.3,1715.2,3070,224.3,58.9,27.4
0.109011,898.4,463.9,1728.5,379.1,3114.1,705.4,895.2,1718.2,3071,224.3,58.9,26.9
0.111011,901.4,459.9,1735.9,378.8,3099.8,678.8,892.2,1721.9,3072,224.2,59,26.3
0.113011,903.1,455.3,1744.2,375.7,3084.5,650.7,889.4,1726.4,3072.7,224.2,59,25.7
0.115011,900.7,451.1,1752.6,366.7,3077.8,616.9,886.8,1731.6,3073.3,224.2,59.1,25.3
0.117011,895.0,444.7,1759.8,354.1,3078.0,580.7,884.5,1737.5,3073.7,224.2,59.1,25
0.119011,889.0,435.1,1766.3,344.1,3078.6,551.6,882.5,1743.9,3073.9,224.1,59.1,24.7
0.121011,886.0,426.3,1772.6,343.7,3074.1,538.6,880.7,1751,3073.9,224.1,59.2,24.5
0.123011,886.9,420.3,1779.6,351.2,3062.7,537.2,879.3,1758.5,3073.7,224.1,59.2,24.3
0.125011,890.7,415.9,1786.6,358.1,3047.5,538.1,878.1,1766.6,3073.3,224.1,59.2,24.1
0.127011,894.1,412.1,1792.1,357.2,3035.2,536.4,877.2,1775,3072.7,224.1,59.2,23.9
0.129011,894.9,408.8,1796.5,347.6,3029.9,535.4,876.6,1783.8,3071.9,224.1,59.3,23.7
0.131011,893.5,404.7,1801.4,331.6,3031.1,536.6,876.3,1793,3071,224.1,59.3,23.5
0.133011,891.9,399.1,1807.3,313.6,3035.3,534.0,876.3,1802.4,3069.9,224.1,59.3,23.3
0.135011,890.9,391.8,1813.6,297.1,3040.1,523.2,876.5,1812.1,3068.6,224.1,59.3,23.1
0.137011,889.7,383.8,1819.0,287.4,3044.5,507.2,876.9,1822,3067.3,224.1,59.3,22.9
0.139011,886.3,379.0,1823.4,291.2,3051.2,492.0,877.5,1832.2,3065.8,224.1,59.3,22.7
0.141011,880.1,379.8,1827.5,310.9,3062.2,482.4,878.2,1842.5,3064.3,224.1,59.3,22.6
0.143011,873.4,383.9,1832.7,340.2,3074.3,477.8,879,1853.1,3062.9,224.2,59.3,22.4
0.145011,869.1,389.0,1839.9,367.0,3082.0,473.6,879.9,1863.9,3061.4,224.2,59.3,22.2
0.147011,866.5,394.6,1851.0,389.4,3086.4,467.0,880.8,1875,3060,224.2,59.2,22
0.149011,864.8,399.8,1866.7,406.1,3089.6,457.8,881.6,1886.4,3058.8,224.3,59.2,21.7
0.151011,864.6,402.7,1885.7,412.6,3092.1,447.4,882.4,1898.2,3057.7,224.3,59.2,21.4
0.153011,866.6,401.2,1904.8,407.3,3091.8,441.2,883.1,1910.4,3056.9,224.4,59.2,21.2
0.155011,870.7,395.0,1922.9,395.7,3085.0,442.4,883.6,1923,3056.4,224.4,59.2,21.1
0.157011,874.6,387.3,1939.7,386.5,3070.8,446.4,883.9,1936.2,3056.2,224.5,59.2,21.1
0.159011,877.2,380.9,1956.3,380.9,3053.3,445.4,883.9,1950,3056.4,224.6,59.2,21.3
0.161011,877.7,377.1,1972.0,378.6,3041.6,438.6,883.7,1964.5,3057,224.6,59.2,21.4
0.163011,876.2,375.5,1987.0,380.5,3040.1,432.3,883.1,1979.8,3058.1,224.7,59.2,21.4
0.165011,873.7,374.5,2003.1,385.7,3045.6,429.9,882.2,1996,3059.7,224.8,59.3,21.2
0.167011,871.9,372.1,2019.1,388.2,3051.0,429.0,880.8,2013.1,3062,224.9,59.3,20.6
0.169011,871.7,365.5,2034.6,384.7,3053.9,423.5,879.1,2031.2,3064.8,224.9,59.3,19.6
0.171011,872.8,352.6,2050.0,380.7,3057.4,409.2,876.9,2050.4,3068.3,225,59.3,18.5
0.173011,872.8,335.6,2068.1,386.4,3066.0,390.3,874.3,2070.7,3072.4,225.1,59.2,17.5
0.175011,871.0,319.3,2089.9,403.0,3079.1,376.5,871.2,2092.3,3077.2,225.2,59.2,17
0.177011,867.6,307.8,2113.9,418.8,3094.0,371.7,867.7,2115,3082.7,225.3,59.2,16.8
0.179011,863.9,301.7,2134.9,421.5,3107.2,372.9,863.7,2138.9,3088.9,225.4,59.1,16.9
0.181011,860.3,299.1,2155.8,415.4,3118.7,374.5,859.3,2164.1,3095.8,225.5,59.1,17.1
0.183011,856.2,299.6,2179.6,409.4,3128.9,372.0,854.5,2190.4,3103.3,225.5,59.1,17.6
0.185011,851.1,302.6,2207.2,408.1,3136.1,363.9,849.2,2217.9,3111.5,225.6,59,18.3
0.187011,845.6,306.3,2238.2,412.2,3138.0,353.6,843.6,2246.5,3120.3,225.7,59,19.4
0.189011,840.7,307.5,2272.6,420.0,3134.0,347.2,837.7,2276.1,3129.7,225.8,59,20.8
0.191011,836.8,303.8,2306.2,428.0,3129.2,349.4,831.4,2306.6,3139.6,225.9,58.9,22.4
0.193011,832.0,296.8,2341.1,433.6,3131.2,359.1,824.9,2337.8,3149.9,226,58.9,23.8
0.195011,826.1,288.3,2377.3,433.9,3143.5,372.5,818.1,2369.7,3160.6,226.1,58.9,24.7
0.197011,820.1,278.9,2412.2,429.1,3162.0,384.2,811.2,2402.1,3171.7,226.2,58.9,25
0.199011,814.7,268.9,2444.4,423.7,3178.7,392.6,804.2,2434.7,3182.9,226.3,58.9,25
0.201011,808.8,258.5,2477.8,420.9,3188.9,400.1,797.1,2467.4,3194.3,226.3,58.9,24.7
0.203011,801.9,248.6,2513.6,416.9,3194.3,407.4,790,2499.9,3205.8,226.4,58.9,24.3
0.205011,793.7,238.0,2550.7,404.3,3200.2,412.6,783,2532.1,3217.2,226.5,58.9,23.9
0.207011,785.1,226.6,2582.5,382.3,3207.5,412.1,776,2563.8,3228.5,226.6,58.9,23.4
0.209011,777.2,216.7,2607.7,355.8,3215.5,404.3,769.3,2594.5,3239.6,226.7,58.9,22.7
0.211011,770.2,210.3,2631.1,328.0,3225.3,391.4,762.7,2624.3,3250.3,226.7,58.9,21.9
0.213011,763.3,206.6,2656.1,300.6,3239.2,378.8,756.5,2652.7,3260.6,226.8,58.9,21.3
0.215011,756.2,202.9,2679.7,279.8,3255.9,373.0,750.5,2679.6,3270.4,226.9,59,21
0.217011,749.0,195.6,2701.3,267.2,3272.8,373.7,745,2704.7,3279.6,226.9,59,21
0.219011,742.3,183.9,2720.6,262.8,3286.4,378.7,739.9,2727.8,3288,227,59,21.3
0.221011,736.2,170.3,2738.1,263.5,3296.0,384.7,735.3,2748.7,3295.7,227.1,58.9,21.8
0.223011,730.4,158.3,2754.9,263.8,3304.0,389.4,731.3,2767.3,3302.5,227.1,58.9,22.3
0.225011,724.4,149.4,2771.7,259.8,3313.7,393.0,727.7,2783.3,3308.4,227.2,58.9,22.6
0.227011,718.7,143.8,2786.3,253.4,3324.2,397.6,724.8,2796.6,3313.2,227.2,58.8,22.8
0.229011,713.0,139.6,2798.9,248.0,3333.7,404.5,722.5,2807,3317.1,227.3,58.8,23
0.231011,707.4,136.3,2809.6,245.3,3341.4,413.2,720.9,2814.6,3319.9,227.3,58.7,23.2
0.233011,701.7,133.9,2818.4,245.0,3347.2,421.9,719.9,2819.1,3321.6,227.3,58.6,23.2
0.235011,696.0,132.8,2824.0,246.5,3350.6,431.5,719.5,2820.7,3322.1,227.4,58.5,23
