time,f1,b1,f2,b2,f3,b3,f1p,f2p,f3p,f0,intensity,harmonicity
0.025011,569.0,55.3,870.4,67.9,2917.9,67.3,574.1,887.4,2916.5,184,64.7,14.5
0.027011,576.4,60.6,887.2,58.8,2914.7,65.2,576.8,888.3,2915.7,184.1,64.8,14.3
0.029011,583.5,66.4,899.7,51.5,2912.0,64.7,581.2,890,2914.4,184.1,64.8,13.9
0.031011,590.3,71.9,908.9,46.2,2910.4,65.8,587.3,892.6,2912.8,184.2,64.8,13.5
0.033011,596.2,77.1,914.3,43.7,2909.9,67.6,594.7,896.3,2910.9,184.3,64.7,13.2
0.035011,602.4,82.8,916.9,44.2,2909.8,69.3,603.2,901.3,2908.9,184.4,64.7,13.1
0.037011,610.0,90.0,917.7,48.9,2909.5,70.6,612.7,907.8,2907.1,184.5,64.6,13
0.039011,618.7,98.9,916.6,59.0,2908.7,72.7,622.8,916,2905.6,184.6,64.6,13
0.041011,628.1,109.4,912.5,77.2,2907.5,76.8,633.1,926.2,2904.5,184.7,64.5,13
0.043011,639.4,122.0,906.0,108.5,2906.5,83.2,643.5,938.3,2904.1,184.8,64.3,13.3
0.045011,655.8,131.9,904.2,158.8,2906.0,91.3,653.7,952.4,2904.5,185,64.2,13.8
0.047011,674.0,124.5,925.6,219.3,2906.7,99.5,663.3,968.5,2905.7,185.1,64.1,14.7
0.049011,684.4,106.7,974.0,245.0,2907.8,106.7,672.1,986.3,2907.9,185.3,64.1,16.1
0.051011,689.3,93.5,1023.8,226.4,2908.3,114.2,680,1005.8,2911,185.4,64,17.5
0.053011,692.1,85.3,1062.5,191.5,2908.6,123.7,686.8,1026.6,2915,185.6,63.9,18.7
0.055011,693.3,81.2,1089.3,158.2,2910.3,138.2,692.3,1048.3,2919.7,185.8,63.9,19.3
0.057011,693.0,80.6,1106.9,133.4,2916.3,160.1,696.6,1070.6,2924.8,186,63.8,19.1
0.059011,691.6,82.4,1119.0,117.3,2927.6,187.9,699.5,1093.1,2930.2,186.2,63.7,18.3
0.061011,690.4,85.7,1128.8,108.5,2940.0,216.6,701.1,1115.5,2935.5,186.4,63.5,17.3
0.063011,689.7,90.2,1137.2,106.7,2949.0,242.1,701.4,1137.3,2940.4,186.6,63.3,16.3
0.065011,689.5,95.6,1144.5,112.9,2953.1,260.1,700.4,1158.3,2944.6,186.8,63.1,15.7
0.067011,689.7,101.7,1152.7,127.5,2953.3,268.0,698.2,1178.2,2947.6,187,62.8,15.5
0.069011,690.5,107.5,1165.2,149.0,2952.0,269.0,694.9,1196.8,2949.1,187.3,62.5,15.5
0.071011,691.8,112.2,1185.0,173.2,2950.9,272.3,690.6,1214.1,2949.1,187.5,62.2,15.6
0.073011,692.4,114.8,1211.3,193.0,2950.0,284.5,685.3,1229.9,2947.2,187.7,61.8,15.7
0.075011,690.3,116.2,1239.9,201.5,2947.6,302.7,679.1,1244.4,2943.5,188,61.4,15.9
0.077011,685.2,118.3,1263.1,195.4,2941.2,309.0,672,1257.5,2937.9,188.3,61,16
0.079011,677.3,121.6,1280.8,177.3,2928.9,285.5,664.1,1269.4,2930.8,188.5,60.7,16.3
0.081011,666.9,125.8,1293.8,153.1,2913.0,231.6,655.4,1280.3,2922.3,188.8,60.4,16.5
0.083011,654.0,131.0,1303.0,129.9,2898.6,169.7,645.9,1290.2,2913,189.1,60.1,16.8
0.085011,638.9,136.4,1309.7,111.2,2888.4,119.8,635.6,1299.3,2903.4,189.3,59.9,17
0.087011,622.2,140.5,1315.3,97.4,2882.3,86.2,624.5,1307.8,2893.9,189.6,59.7,17.2
0.089011,604.8,142.1,1320.6,87.1,2879.6,65.4,612.5,1315.7,2885.4,189.9,59.5,17.4
0.091011,587.7,141.0,1325.9,78.7,2879.2,53.1,599.8,1323,2878.2,190.1,59.4,17.5
0.093011,571.7,138.0,1330.9,71.4,2880.4,46.0,586.3,1329.9,2873.2,190.4,59.3,17.6
0.095011,557.4,134.0,1335.6,65.0,2883.2,42.3,572.1,1336.3,2870.7,190.6,59.2,17.6
0.097011,544.9,129.9,1339.9,59.9,2887.3,40.8,557.3,1342.2,2871,190.9,59.2,17.5
0.099011,533.5,126.6,1343.9,56.7,2892.2,41.1,542,1347.6,2874.6,191.1,59.1,17.3
0.101011,522.2,124.3,1347.5,55.5,2897.7,42.7,526.3,1352.5,2881.3,191.3,59,17
0.103011,511.0,123.2,1351.0,55.5,2903.6,45.5,510.5,1356.7,2891.1,191.6,58.9,16.7
0.105011,500.5,123.4,1354.8,55.4,2909.5,48.9,494.7,1360.3,2903.7,191.8,58.8,16.4
0.107011,491.0,125.6,1359.0,54.6,2915.6,52.8,479.3,1363.4,2918.6,192,58.6,16.2
0.109011,481.6,129.1,1363.3,53.4,2922.5,57.8,464.4,1365.8,2935.1,192.2,58.5,16.1
0.111011,470.6,132.1,1366.7,52.8,2930.7,65.1,450.3,1367.6,2952.5,192.4,58.3,15.9
0.113011,456.8,133.0,1368.8,53.8,2940.4,76.1,437.5,1369,2969.9,192.5,58.2,15.8
0.115011,440.3,129.7,1369.5,56.9,2952.4,92.0,426,1370,2986.6,192.7,57.9,15.6
0.117011,423.1,121.9,1369.6,62.5,2968.4,113.5,416.2,1370.6,3001.6,192.8,57.7,15.5
0.119011,407.1,112.0,1369.8,71.2,2991.1,138.7,408.4,1371,3014.1,193,57.4,15.4
0.121011,392.8,103.3,1371.4,84.2,3024.0,163.9,402.6,1371.2,3023.6,193.1,57,15.4
0.123011,381.3,98.9,1375.0,101.4,3062.4,180.2,399.1,1371.3,3029.5,193.2,56.5,15.2
0.125011,370.9,98.9,1381.2,124.5,3102.8,186.6,397.9,1371.3,3031.5,193.3,55.9,14.8
