time,f1,b1,f2,b2,f3,b3,f1p,f2p,f3p,f0,intensity,harmonicity
0.026011,410.9,85.6,1270.4,151.4,2389.0,245.3,413.3,1247.5,2402.9,195,64,21.5
0.028011,410.6,86.4,1255.6,160.5,2398.2,258.5,412.8,1243.9,2405.7,194.9,64,22.7
0.030011,410.2,87.9,1239.8,168.3,2410.4,260.9,411.9,1238.3,2410,194.8,64,24
0.032011,409.9,89.4,1223.9,170.9,2423.0,258.2,410.9,1231.2,2415.8,194.7,64,25.1
0.034011,409.5,90.1,1211.9,166.3,2432.5,256.2,409.7,1223,2422.5,194.6,64,25.8
0.036011,409.3,89.6,1203.2,158.6,2439.0,255.9,408.7,1214.6,2430,194.4,64,26.1
0.038011,409.3,88.8,1196.9,153.6,2443.4,256.2,407.9,1206.7,2437.6,194.3,64,25.8
0.040011,409.7,88.2,1191.7,153.5,2448.1,255.5,407.5,1199.9,2445.2,194.2,64,25.2
0.042011,410.5,88.2,1189.0,157.2,2451.9,253.2,407.6,1195,2452.2,194.1,64,24.4
0.044011,411.7,89.1,1189.5,164.0,2453.8,252.2,408.3,1192.5,2458.5,193.9,63.9,23.8
0.046011,413.0,91.2,1192.9,172.2,2455.6,255.5,409.7,1192.6,2463.7,193.8,63.9,23.5
0.048011,414.4,94.0,1198.5,180.8,2460.8,261.9,411.7,1195.6,2467.9,193.7,64,23.4
0.050011,415.8,96.1,1205.3,186.5,2468.5,266.0,414.3,1201.5,2470.9,193.5,64,23.4
0.052011,417.5,96.8,1213.7,187.0,2474.8,266.0,417.5,1210.2,2472.9,193.4,64,23.4
0.054011,419.8,96.2,1225.4,182.0,2477.8,265.7,421.2,1221.3,2474,193.2,64,23.4
0.056011,422.6,95.9,1239.8,174.6,2477.8,269.7,425.2,1234.4,2474.6,193.1,64,23.4
0.058011,426.2,96.4,1257.1,166.8,2476.9,278.8,429.6,1249,2474.9,192.9,64,23.4
0.060011,430.2,97.5,1273.6,159.9,2476.5,290.3,434.1,1264.6,2475.2,192.8,64.1,23.4
0.062011,434.7,98.9,1288.7,153.5,2477.0,304.9,438.7,1280.7,2475.9,192.6,64.1,23.4
0.064011,439.3,100.2,1300.5,149.3,2477.9,324.0,443.4,1296.9,2477.2,192.5,64.1,23.4
0.066011,444.8,102.0,1311.0,149.3,2479.3,348.0,448.1,1312.8,2479.5,192.3,64.2,23.3
0.068011,450.9,104.1,1320.3,154.6,2481.3,367.5,452.8,1328.2,2483.1,192.1,64.2,23.1
0.070011,457.9,105.8,1330.8,165.6,2484.2,379.5,457.6,1342.9,2487.9,192,64.3,22.8
0.072011,464.9,106.4,1342.9,180.5,2488.6,388.0,462.4,1357,2494.2,191.8,64.3,22.5
0.074011,472.0,105.7,1358.5,199.9,2496.0,397.7,467.3,1370.5,2502,191.6,64.4,22.4
0.076011,478.3,103.5,1376.1,219.5,2506.7,399.9,472.4,1383.6,2511.3,191.5,64.5,22.5
0.078011,483.9,99.2,1395.7,234.4,2521.7,381.4,477.6,1396.6,2522,191.3,64.5,22.7
0.080011,488.4,93.9,1413.8,239.5,2538.7,347.9,482.8,1409.6,2534.1,191.2,64.6,23.1
0.082011,492.4,88.3,1431.2,236.5,2557.6,314.1,488.1,1422.9,2547.3,191,64.7,23.5
0.084011,495.4,83.5,1446.1,229.4,2574.8,294.0,493.4,1436.6,2561.7,190.8,64.8,23.9
0.086011,498.1,80.0,1460.6,222.2,2590.0,288.2,498.4,1450.7,2577.1,190.7,64.9,24.1
0.088011,500.2,78.3,1474.0,218.6,2600.7,294.0,502.9,1465.3,2593.5,190.5,64.9,24.2
0.090011,502.1,78.0,1487.1,218.2,2609.0,305.6,506.9,1480.2,2610.7,190.3,65,24.3
0.092011,503.7,77.9,1498.4,219.1,2618.3,314.5,510,1495.1,2628.6,190.2,65.1,24.4
0.094011,505.0,77.4,1509.0,220.4,2632.5,316.9,512,1510,2647.3,190,65.1,24.5
0.096011,505.9,77.0,1519.0,224.2,2650.6,314.8,512.9,1524.3,2666.5,189.9,65.2,24.6
0.098011,506.4,77.0,1530.1,231.9,2673.2,312.4,512.4,1537.8,2686.3,189.7,65.3,24.8
0.100011,506.2,77.1,1541.1,242.1,2697.9,310.2,510.5,1550.2,2706.4,189.5,65.3,24.9
0.102011,505.2,77.4,1552.4,253.6,2725.6,303.0,507.1,1561.2,2726.7,189.4,65.3,25.1
0.104011,503.5,78.2,1564.6,265.7,2754.9,286.5,502.5,1570.7,2746.9,189.2,65.3,25.1
0.106011,501.2,79.6,1576.4,277.7,2779.8,266.4,496.7,1578.4,2766.8,189.1,65.3,24.9
0.108011,497.9,82.0,1587.7,292.2,2801.4,245.1,490.1,1584.5,2786.1,189,65.2,24.6
0.110011,493.8,84.9,1595.4,308.9,2817.8,224.6,482.9,1589,2804.4,188.8,65.2,24.2
0.112011,488.2,88.5,1599.0,329.8,2830.8,201.9,475.5,1592.1,2821.3,188.7,65.1,23.7
0.114011,481.5,92.2,1599.4,350.5,2840.3,181.7,468.4,1594,2836.5,188.6,64.9,23
0.116011,472.9,95.9,1598.3,366.4,2847.6,167.6,461.9,1595.1,2849.5,188.4,64.8,22.3
0.118011,462.7,98.8,1597.2,374.5,2853.3,163.0,456.4,1595.5,2860,188.3,64.6,21.3
0.120011,450.2,101.3,1596.4,381.8,2859.1,166.0,452.2,1595.6,2867.7,188.2,64.3,20.2
0.122011,436.3,103.5,1594.3,398.4,2865.1,174.1,449.6,1595.6,2872.5,188.1,64,19.1
0.124011,419.7,105.6,1586.9,435.6,2870.0,186.4,448.7,1595.5,2874.1,188,63.6,18.1
