time,f1,b1,f2,b2,f3,b3,f1p,f2p,f3p,f0,intensity,harmonicity
0.025011,694.4,272.2,1628.5,380.3,2533.3,561.8,716,1678.6,2606.9,242,58.3,16.8
0.027011,704.1,245.5,1645.3,369.3,2570.3,523.8,716.4,1677.6,2610.6,242.1,58.5,17.6
0.029011,712.0,221.4,1656.2,349.6,2607.8,485.2,716.9,1675.9,2616.5,242.3,58.8,18.4
0.031011,718.1,198.8,1665.2,331.6,2639.8,453.3,717.8,1673.6,2624.7,242.5,59.1,19.1
0.033011,721.9,176.7,1673.0,317.3,2662.4,435.5,718.9,1670.9,2634.7,242.7,59.4,19.8
0.035011,724.4,154.5,1679.3,303.4,2677.9,430.1,720.3,1668,2646.4,242.9,59.8,20.3
0.037011,726.5,136.0,1683.0,289.1,2687.9,435.8,722,1665,2659.5,243.1,60.2,20.5
0.039011,729.2,121.6,1685.1,273.6,2697.3,456.8,724.1,1662,2673.5,243.4,60.6,20.5
0.041011,732.6,112.4,1685.6,257.3,2708.3,496.1,726.6,1659.3,2688.3,243.6,61,20.5
0.043011,736.3,106.7,1684.0,239.9,2719.9,544.3,729.5,1657,2703.3,243.9,61.4,20.3
0.045011,740.2,101.9,1680.1,220.2,2731.0,593.2,732.9,1655.3,2718.3,244.2,61.8,20.2
0.047011,743.9,97.8,1675.3,201.6,2741.0,632.4,736.8,1654.2,2733,244.5,62.2,20.1
0.049011,748.0,94.4,1670.7,184.9,2753.1,656.9,741.3,1653.9,2747,244.9,62.6,19.9
0.051011,752.3,92.5,1666.8,171.6,2765.3,646.2,746.3,1654.3,2760.1,245.2,62.9,19.7
0.053011,756.8,92.0,1663.3,161.6,2771.0,595.3,751.9,1655.5,2772.2,245.6,63.2,19.5
0.055011,761.6,92.7,1659.3,152.9,2769.5,521.7,758,1657.4,2783,246,63.4,19.4
0.057011,766.5,93.9,1655.3,145.0,2765.4,454.0,764.8,1660,2792.5,246.4,63.6,19.4
0.059011,772.0,96.0,1651.9,137.8,2764.3,398.1,772.1,1663.1,2800.7,246.8,63.8,19.4
0.061011,778.4,99.8,1650.9,132.8,2771.0,358.7,780,1666.5,2807.7,247.3,63.9,19.4
0.063011,785.9,106.1,1652.6,130.8,2785.5,334.6,788.5,1670.1,2813.4,247.7,63.9,19.5
0.065011,794.8,114.4,1656.4,130.7,2804.9,321.8,797.4,1673.7,2818.1,248.2,64,19.7
0.067011,803.9,122.5,1660.6,131.0,2823.8,319.9,806.8,1677,2821.9,248.8,63.9,20.1
0.069011,813.3,129.7,1664.9,131.2,2841.1,324.1,816.6,1680,2825.1,249.3,63.9,20.7
0.071011,822.2,135.2,1669.0,131.7,2853.6,327.7,826.8,1682.4,2827.8,249.9,63.8,21.3
0.073011,830.3,138.9,1672.6,133.0,2858.8,326.4,837.2,1684.1,2830.3,250.5,63.8,21.7
0.075011,838.6,141.4,1675.6,135.1,2857.8,320.4,847.8,1685,2832.9,251.1,63.7,21.7
0.077011,847.1,142.9,1677.7,137.4,2854.0,311.7,858.5,1685,2835.7,251.8,63.6,21
0.079011,856.1,144.3,1678.5,139.3,2850.0,301.4,869.2,1684.1,2839.1,252.5,63.6,19.8
0.081011,867.0,146.4,1678.3,141.3,2846.4,287.3,879.8,1682.2,2843,253.2,63.5,18.5
0.083011,879.9,149.0,1677.7,143.6,2843.8,271.3,890.3,1679.6,2847.8,253.9,63.5,17.2
0.085011,896.4,150.9,1677.7,146.5,2842.6,256.1,900.4,1676.2,2853.5,254.7,63.4,16.3
0.087011,914.8,150.1,1679.3,150.1,2843.9,247.7,910.1,1672.2,2860,255.4,63.4,16
0.089011,931.6,146.8,1682.3,154.9,2849.5,249.8,919.4,1667.9,2867.6,256.3,63.4,16
0.091011,945.1,143.2,1685.9,161.5,2862.4,261.2,927.9,1663.3,2876,257.1,63.3,16.2
0.093011,953.8,141.8,1687.6,169.0,2880.7,270.8,935.8,1658.6,2885.2,258,63.3,16.3
0.095011,959.3,142.6,1685.1,177.0,2899.5,268.6,942.8,1654.2,2895.1,258.9,63.3,16.2
0.097011,962.1,144.6,1677.0,184.7,2912.6,257.4,948.8,1650,2905.4,259.8,63.3,15.7
0.099011,963.2,147.0,1665.9,190.7,2921.6,246.8,953.8,1646.4,2916.2,260.7,63.3,15
0.101011,963.4,150.0,1653.7,194.8,2931.0,239.5,957.6,1643.4,2927,261.7,63.3,14.3
0.103011,962.8,152.9,1642.9,195.8,2941.7,235.2,960.2,1641.1,2937.7,262.6,63.3,13.8
0.105011,961.1,155.3,1632.9,193.4,2953.4,229.3,961.5,1639.4,2948.2,263.6,63.3,13.5
0.107011,958.3,157.2,1624.4,188.3,2963.1,216.7,961.4,1638.5,2958,264.6,63.2,13.7
0.109011,955.0,159.5,1618.4,182.2,2969.1,197.9,959.9,1638.2,2967.2,265.7,63.2,14.3
0.111011,951.0,162.7,1614.7,174.2,2972.7,178.4,957,1638.2,2975.4,266.7,63.1,14.9
0.113011,945.9,165.8,1613.3,164.0,2975.3,165.0,952.5,1638.6,2982.6,267.7,63.1,15.5
0.115011,939.3,168.6,1613.7,151.5,2978.4,157.3,946.6,1638.9,2988.5,268.8,63.1,15.8
0.117011,931.5,171.3,1615.5,139.1,2982.4,152.7,939.2,1639,2993.2,269.8,63,15.6
0.119011,922.7,173.3,1617.8,128.2,2986.9,149.3,930.3,1638.6,2996.6,270.9,62.9,15.1
0.121011,911.9,173.8,1620.7,117.9,2991.5,147.4,920.1,1637.3,2998.6,271.9,62.8,14.5
0.123011,899.7,172.1,1624.0,109.4,2995.9,149.7,908.5,1634.9,2999.3,272.9,62.7,14
0.125011,887.0,168.4,1627.3,103.5,3000.0,158.4,895.7,1631,2998.7,274,62.6,13.6
0.127011,873.1,162.9,1630.1,100.5,3004.0,175.2,881.7,1625.6,2996.9,275,62.4,13.5
0.129011,859.5,156.8,1631.8,101.6,3007.9,197.8,866.8,1618.3,2994.1,276,62.2,13.5
0.131011,845.4,150.2,1632.2,108.1,3011.5,228.1,851,1609.1,2990.3,277,62,13.6
0.133011,831.7,143.4,1630.3,121.6,3011.9,266.4,834.6,1597.9,2985.7,278,61.7,13.7
0.135011,819.0,137.3,1624.1,143.1,3003.6,305.5,817.6,1584.7,2980.5,278.9,61.4,13.7
0.137011,806.4,133.5,1609.5,174.5,2982.5,328.4,800.4,1569.7,2974.7,279.9,61.2,13.6
0.139011,794.4,133.8,1584.1,210.4,2957.5,314.3,783,1553,2968.7,280.8,60.9,13.4
0.141011,781.4,139.6,1546.7,245.9,2939.0,270.9,765.8,1535,2962.4,281.6,60.7,13.3
0.143011,767.2,150.5,1505.6,271.7,2931.2,223.2,748.9,1515.8,2956.2,282.4,60.6,13.3
0.145011,751.9,162.7,1470.7,281.9,2930.0,184.9,732.6,1496.1,2950,283.2,60.4,13.7
0.147011,734.1,171.5,1443.5,273.5,2930.9,152.7,717,1476.1,2944.1,284,60.3,14.7
0.149011,715.9,172.5,1426.2,249.8,2931.6,126.4,702.4,1456.4,2938.6,284.7,60.2,16.3
0.151011,697.4,166.3,1415.1,218.5,2931.7,103.7,689,1437.5,2933.5,285.4,60,17.9
0.153011,680.6,156.2,1407.0,188.7,2931.0,85.6,677,1419.9,2928.9,286,59.8,19.2
0.155011,666.5,146.5,1400.3,164.7,2930.1,72.3,666.5,1404.1,2924.9,286.6,59.5,19.7
0.157011,654.2,139.5,1394.2,145.6,2929.0,62.4,657.7,1390.5,2921.6,287.1,59,19.2
0.159011,644.2,138.0,1389.0,133.2,2927.5,56.8,650.8,1379.5,2919,287.6,58.3,17.9
0.161011,635.1,144.3,1383.4,127.0,2925.1,54.8,645.7,1371.4,2917.1,288.1,57.4,16.2
0.163011,626.1,162.7,1376.1,128.3,2921.1,56.6,642.7,1366.4,2915.9,288.5,56.2,14.6
0.165011,615.2,198.0,1366.3,136.7,2915.0,62.0,641.6,1364.7,2915.5,288.9,54.8,13.2
