time,f1,b1,f2,b2,f3,b3,f1p,f2p,f3p,f0,intensity,harmonicity
0.025011,432.0,91.8,1929.9,97.3,3033.1,150.6,429,1958.1,3027.5,0,51.4,7.3
0.027011,434.9,98.3,1945.5,84.3,3028.9,123.7,428,1960.1,3028.6,0,52.5,19.9
0.029011,435.2,106.3,1958.5,71.9,3027.7,105.4,426.6,1963.5,3030.2,0,53.4,20.5
0.031011,430.9,109.2,1968.8,62.5,3028.9,96.2,424.5,1968,3032.5,131.2,54.1,14.5
0.033011,422.4,105.3,1978.1,58.3,3031.7,97.8,422.1,1973.8,3035.4,131.1,54.6,7.2
0.035011,413.2,97.8,1987.6,59.6,3035.7,109.7,419.3,1980.5,3038.9,131.1,55.1,4
0.037011,407.5,90.1,1997.1,62.1,3040.0,121.7,416.2,1988.1,3042.8,131,55.6,5.3
0.039011,404.8,82.4,2006.4,61.0,3044.3,125.0,412.9,1996.4,3047.1,131,55.9,7.5
0.041011,403.0,76.3,2016.1,58.3,3049.1,126.5,409.7,2005.2,3051.8,130.9,56.3,10.1
0.043011,401.4,73.1,2026.4,58.2,3055.6,133.7,406.4,2014.4,3056.6,130.9,56.6,12.5
0.045011,400.2,70.6,2035.4,58.8,3063.6,141.4,403.3,2023.8,3061.6,130.8,56.9,14.2
0.047011,398.9,66.3,2042.1,57.3,3071.6,142.5,400.5,2033.2,3066.6,130.7,57.1,15.2
0.049011,397.5,62.1,2047.7,55.9,3078.8,141.8,397.9,2042.5,3071.5,130.7,57.3,15.7
0.051011,396.2,60.5,2053.6,57.1,3084.4,142.8,395.7,2051.5,3076.1,130.6,57.5,15.9
0.053011,395.4,60.3,2059.7,58.3,3087.8,140.6,393.9,2060.1,3080.4,130.5,57.7,16
0.055011,395.0,59.0,2065.5,57.7,3089.7,135.6,392.5,2068.1,3084.3,130.5,57.8,16.1
0.057011,394.6,58.2,2070.5,58.8,3090.7,135.5,391.4,2075.5,3087.6,130.4,57.9,16.3
0.059011,394.4,59.3,2074.8,63.8,3090.8,142.7,390.7,2082.2,3090.3,130.3,57.9,16.6
0.061011,394.2,60.0,2079.0,68.4,3090.3,147.8,390.4,2088.2,3092.1,130.2,58,16.6
0.063011,393.9,58.9,2084.1,68.5,3089.8,147.2,390.3,2093.4,3093.2,130.1,58,16.4
0.065011,393.5,58.4,2090.0,67.7,3088.6,149.6,390.4,2097.9,3093.5,130.1,57.9,15.6
0.067011,393.2,59.6,2095.5,68.2,3086.2,158.2,390.7,2101.6,3092.8,130,57.9,13.7
0.069011,392.7,59.6,2100.3,66.9,3084.2,164.9,391.1,2104.6,3091.2,129.9,57.9,10.8
0.071011,391.8,57.5,2104.5,64.1,3082.9,167.7,391.5,2107.1,3088.8,129.8,57.8,7.7
0.073011,390.7,56.2,2107.7,63.9,3080.8,174.3,391.9,2109,3085.5,129.8,57.8,5.5
0.075011,390.0,56.9,2109.6,66.0,3077.3,183.2,392.2,2110.4,3081.4,129.7,57.8,5
0.077011,389.7,57.0,2111.7,65.8,3073.8,184.0,392.4,2111.5,3076.7,129.7,57.7,7.1
0.079011,389.5,55.8,2114.8,63.9,3070.6,179.2,392.4,2112.2,3071.3,129.6,57.7,11.2
0.081011,389.4,56.0,2117.2,64.9,3065.9,178.4,392.4,2112.8,3065.5,129.6,57.6,15.9
0.083011,389.5,57.7,2117.6,68.9,3059.6,181.0,392.2,2113.3,3059.4,129.6,57.6,20.1
0.085011,389.7,57.8,2118.0,70.4,3054.9,180.3,391.9,2113.7,3053,129.5,57.6,22.4
0.087011,389.8,56.6,2119.1,69.6,3051.3,180.7,391.6,2114.1,3046.6,129.5,57.6,22.5
0.089011,390.1,57.0,2119.0,70.8,3045.9,190.0,391.2,2114.5,3040.3,129.5,57.6,21
0.091011,390.6,58.2,2118.1,72.7,3039.3,201.9,390.8,2115,3034.1,129.5,57.6,18.9
0.093011,390.9,57.4,2119.0,71.6,3034.5,205.6,390.5,2115.6,3028.3,129.5,57.6,16.7
0.095011,391.2,55.9,2121.2,70.1,3030.3,205.2,390.3,2116.3,3022.9,129.5,57.6,15.4
0.097011,391.6,56.3,2121.9,71.7,3024.2,207.0,390.2,2116.9,3018,129.6,57.7,15.1
0.099011,392.2,57.3,2120.8,73.9,3017.4,206.2,390.3,2117.6,3013.6,129.6,57.7,15.2
0.101011,392.7,56.2,2120.3,73.1,3012.1,201.6,390.6,2118.2,3009.8,129.6,57.8,15.5
0.103011,393.1,54.5,2120.0,72.9,3007.0,203.2,391.1,2118.6,3006.5,129.6,57.9,15.8
0.105011,393.6,54.5,2117.6,76.6,3001.2,216.3,391.8,2118.8,3003.9,129.6,57.9,15.8
0.107011,394.3,55.0,2114.1,80.6,2997.0,229.5,392.7,2118.7,3001.8,129.7,58,15.5
0.109011,394.9,54.4,2112.2,81.9,2995.0,234.2,393.7,2118.3,3000.1,129.7,58.1,15
0.111011,395.5,54.7,2110.5,83.2,2993.2,235.1,394.8,2117.4,2998.8,129.7,58.2,14.5
0.113011,396.4,56.8,2106.9,84.5,2991.3,234.4,396,2115.9,2997.9,129.7,58.2,14
0.115011,397.1,57.8,2104.0,81.8,2990.8,226.4,397.2,2113.9,2997.1,129.7,58.3,13.8
0.117011,397.4,56.5,2103.3,76.3,2991.4,212.6,398.3,2111.3,2996.5,129.7,58.3,13.7
0.119011,397.7,56.0,2102.6,73.1,2991.4,202.3,399.3,2108,2995.8,129.7,58.4,13.8
0.121011,398.1,57.8,2099.9,73.0,2990.2,197.7,400.1,2104.2,2995.1,129.7,58.4,14
0.123011,398.5,59.3,2096.9,71.8,2989.5,191.1,400.7,2099.7,2994.3,129.7,58.4,14.4
0.125011,398.9,59.5,2094.7,68.9,2990.1,182.1,401,2094.6,2993.2,129.7,58.4,14.9
0.127011,399.3,60.9,2091.1,68.7,2991.5,178.4,401.1,2089,2991.9,129.6,58.3,16
0.129011,399.6,63.8,2086.0,71.5,2992.8,179.3,400.8,2083,2990.3,129.6,58.3,17.7
0.131011,399.7,65.3,2082.6,72.9,2993.9,175.6,400.2,2076.6,2988.5,129.5,58.3,19.3
0.133011,399.6,65.5,2081.3,73.2,2994.1,166.5,399.4,2070,2986.4,129.4,58.2,20.4
0.135011,399.3,67.6,2077.5,76.3,2992.6,157.4,398.3,2063.4,2984.1,129.3,58.1,20.3
0.137011,398.7,70.9,2069.1,81.4,2990.2,148.5,397,2056.8,2981.6,129.2,57.9,18.6
0.139011,397.5,71.7,2060.3,83.2,2989.3,138.8,395.6,2050.4,2979.1,129.1,57.7,15.6
0.141011,396.1,71.3,2053.9,83.2,2989.3,132.7,394.2,2044.3,2976.6,129,57.4,12.2
0.143011,394.5,74.3,2046.4,86.1,2987.2,134.6,392.7,2038.7,2974.1,128.9,57,9.1
0.145011,392.5,80.0,2036.5,89.9,2981.5,140.1,391.3,2033.7,2971.9,128.8,56.6,7.2
0.147011,390.6,83.7,2028.9,88.6,2974.5,137.5,390,2029.4,2969.9,128.6,56.1,6.9
0.149011,389.3,86.5,2025.2,85.3,2967.9,126.6,389,2026,2968.3,128.5,55.5,7.5
0.151011,388.3,93.3,2020.3,87.9,2959.3,117.3,388.2,2023.5,2967.1,128.4,54.9,8.6
0.153011,386.4,102.4,2008.6,98.1,2947.8,111.3,387.7,2022,2966.3,128.2,54.2,9.6
0.155011,384.0,104.3,1993.0,104.8,2938.9,100.5,387.5,2021.5,2966.1,128.1,53.3,10
