time,f1,b1,f2,b2,f3,b3,f1p,f2p,f3p,f0,intensity,harmonicity
0.026000,798.9,103.5,1993.4,260.9,3009.7,196.9,838,1961.8,3004.7,202.3,57.5,8.3
0.028000,813.1,99.9,1980.8,262.7,3008.1,215.1,840.6,1961.5,3004.3,202.3,57.7,9.2
0.030000,825.3,99.4,1967.8,255.8,3005.0,228.7,844.8,1961.1,3003.6,202.3,57.9,10.1
0.032000,838.3,102.3,1957.8,239.1,3001.5,234.4,850.7,1960.5,3002.7,202.3,58.1,11
0.034000,852.3,108.4,1952.6,219.6,2999.1,231.9,857.9,1959.7,3001.6,202.3,58.2,11.9
0.036000,868.7,117.4,1949.5,202.3,2998.0,226.5,866.5,1958.8,3000.2,202.4,58.3,12.6
0.038000,886.6,127.0,1947.2,191.0,2998.3,224.8,876.2,1957.7,2998.7,202.4,58.3,13.2
0.040000,904.0,133.3,1945.3,186.0,2999.7,229.3,886.8,1956.5,2997.1,202.4,58.3,13.8
0.042000,920.6,134.5,1943.4,183.5,3001.4,237.0,898.1,1955.3,2995.4,202.5,58.4,14.3
0.044000,934.8,130.6,1942.4,179.3,3000.9,240.6,909.9,1953.9,2993.7,202.5,58.5,14.9
0.046000,947.7,123.4,1942.8,170.9,2996.6,237.4,922,1952.5,2991.9,202.6,58.6,15.5
0.048000,958.4,115.8,1944.4,160.4,2988.9,233.3,934,1951.1,2990.3,202.6,58.8,16.2
0.050000,967.7,109.1,1946.4,149.9,2978.6,235.0,945.9,1949.5,2988.7,202.7,58.9,16.9
0.052000,975.4,104.0,1947.5,142.1,2968.6,243.2,957.3,1948,2987.3,202.7,59.1,17.6
0.054000,981.8,99.1,1947.3,138.1,2963.6,255.6,968.1,1946.4,2986.1,202.8,59.3,18.2
0.056000,986.2,94.1,1945.7,139.3,2967.4,270.0,978.2,1944.8,2985.2,202.9,59.5,18.8
0.058000,988.9,88.9,1943.5,144.4,2976.1,285.7,987.3,1943.2,2984.6,203,59.7,19.3
0.060000,991.1,83.3,1941.7,151.0,2985.9,304.1,995.4,1941.6,2984.3,203,59.9,19.8
0.062000,993.4,78.3,1941.6,155.2,2996.1,321.8,1002.3,1939.9,2984.4,203.1,60.1,20.2
0.064000,995.8,73.6,1943.2,155.3,3008.5,333.1,1008.1,1938.2,2984.8,203.2,60.3,20.3
0.066000,997.9,69.5,1945.1,151.8,3017.5,332.6,1012.6,1936.5,2985.7,203.3,60.5,20.1
0.068000,999.5,65.4,1945.4,147.2,3016.1,325.6,1016,1934.7,2987,203.4,60.6,19.4
0.070000,1000.3,61.7,1943.3,144.3,3003.6,317.2,1018.3,1932.9,2988.7,203.5,60.8,18.6
0.072000,999.9,58.5,1939.2,145.8,2990.1,310.9,1019.4,1931,2990.8,203.7,60.9,17.6
0.074000,998.6,55.2,1932.8,152.6,2981.6,311.2,1019.7,1929.1,2993.4,203.8,61,16.6
0.076000,998.0,52.3,1925.7,161.7,2978.5,317.1,1019.1,1927.1,2996.3,203.9,61,15.7
0.078000,1000.0,50.1,1919.9,170.9,2979.3,324.1,1017.8,1925,2999.5,204.1,61.1,14.6
0.080000,1004.8,48.9,1917.9,178.3,2984.1,331.5,1016,1922.9,3003.1,204.2,61.2,13.4
0.082000,1010.8,47.9,1918.8,184.0,2992.6,339.3,1013.8,1920.7,3007,204.4,61.2,12.4
0.084000,1015.4,46.9,1919.1,188.0,3001.5,342.5,1011.4,1918.4,3011.1,204.6,61.3,11.9
0.086000,1017.8,45.9,1916.9,191.6,3010.7,336.7,1009.1,1916.2,3015.3,204.7,61.3,12.1
0.088000,1018.5,45.1,1912.9,195.1,3021.6,321.9,1006.8,1913.9,3019.8,204.9,61.3,13.1
0.090000,1018.8,44.8,1909.7,198.9,3033.1,303.5,1004.9,1911.6,3024.2,205.1,61.3,14.6
0.092000,1019.1,45.0,1907.6,203.4,3042.0,287.5,1003.4,1909.4,3028.7,205.4,61.3,16.2
0.094000,1019.4,45.8,1906.2,207.6,3045.3,282.2,1002.4,1907.2,3033.2,205.6,61.2,17.9
0.096000,1019.3,47.0,1903.7,211.6,3046.2,290.2,1002.1,1905.2,3037.6,205.9,61.1,19.3
0.098000,1018.7,48.5,1899.5,215.8,3050.2,310.0,1002.4,1903.3,3041.9,206.1,61,20.9
0.100000,1017.8,50.0,1894.5,220.2,3060.0,337.4,1003.5,1901.5,3046,206.4,60.8,22.5
0.102000,1017.0,51.6,1891.4,222.2,3069.6,359.8,1005.2,1900,3050,206.7,60.6,23.9
0.104000,1016.6,53.1,1891.5,220.3,3068.4,366.6,1007.6,1898.6,3053.7,207.1,60.4,25
0.106000,1016.5,54.6,1893.6,215.6,3055.5,359.3,1010.5,1897.6,3057.1,207.4,60.2,25.7
0.108000,1016.5,55.8,1895.4,211.9,3040.8,350.5,1014,1896.9,3060.3,207.8,60.1,26.1
0.110000,1016.8,56.7,1896.8,211.5,3031.3,349.2,1017.9,1896.4,3063.2,208.2,59.9,26.2
0.112000,1017.1,57.0,1899.5,214.1,3032.2,350.5,1021.9,1896.3,3065.9,208.7,59.8,26
0.114000,1017.7,57.0,1904.3,218.5,3044.4,341.1,1026.1,1896.6,3068.3,209.2,59.7,25.4
0.116000,1018.4,56.8,1908.6,223.5,3061.3,316.5,1030.1,1897.2,3070.5,209.7,59.6,24.3
0.118000,1019.6,56.3,1909.5,225.9,3074.0,285.4,1033.9,1898.2,3072.4,210.3,59.5,22.4
0.120000,1021.1,55.8,1907.2,224.1,3082.5,254.6,1037.2,1899.6,3074.2,210.9,59.4,20
0.122000,1022.3,55.3,1904.1,222.3,3090.2,234.1,1039.8,1901.3,3075.9,211.5,59.4,17.6
0.124000,1023.4,54.9,1902.8,222.3,3097.8,225.8,1041.6,1903.3,3077.4,212.2,59.3,15.6
0.126000,1024.9,55.1,1904.5,221.2,3100.6,229.6,1042.5,1905.6,3078.9,213,59.1,14.4
0.128000,1027.0,56.1,1907.7,216.4,3095.8,239.2,1042.2,1908.2,3080.4,213.7,59,13.9
0.130000,1029.5,57.9,1910.0,208.1,3085.4,243.7,1040.7,1911.1,3081.8,214.6,58.8,13.8
0.132000,1032.0,60.9,1911.3,197.3,3076.7,237.4,1037.8,1914.2,3083.3,215.4,58.6,13.8
0.134000,1034.1,65.8,1913.1,187.0,3076.0,225.5,1033.7,1917.4,3084.8,216.3,58.4,13.6
0.136000,1035.1,72.8,1916.8,180.4,3081.3,218.2,1028.1,1920.8,3086.4,217.3,58.1,13.1
0.138000,1034.8,82.9,1922.8,177.5,3088.7,218.6,1021.2,1924.3,3088.2,218.3,57.8,12.2
0.140000,1032.8,96.4,1929.4,176.5,3095.0,224.8,1013,1927.9,3090,219.3,57.5,11.2
0.142000,1027.9,115.6,1935.1,176.9,3099.4,233.7,1003.7,1931.5,3092,220.3,57.2,10.3
0.144000,1019.0,139.6,1937.5,178.7,3101.0,239.8,993.2,1935,3094.1,221.4,56.8,9.4
0.146000,1003.7,166.6,1936.4,181.8,3099.0,237.1,981.8,1938.5,3096.3,222.5,56.5,8.9
0.148000,982.5,187.5,1934.0,185.0,3094.7,224.0,969.8,1941.8,3098.5,223.6,56.1,8.5
0.150000,960.0,195.5,1934.2,188.1,3092.3,209.6,957.2,1945.1,3100.9,224.8,55.9,8.3
0.152000,938.6,192.5,1939.5,192.0,3094.6,202.6,944.3,1948.2,3103.2,225.9,55.7,8.1
0.154000,922.3,184.0,1948.8,197.2,3099.5,205.9,931.4,1951,3105.6,227,55.6,8
0.156000,909.5,173.2,1959.4,206.3,3103.6,218.3,918.8,1953.7,3107.9,228.2,55.6,8
0.158000,899.7,162.4,1966.6,220.7,3104.2,234.9,906.6,1956.1,3110.1,229.3,55.6,7.9
0.160000,890.8,151.8,1967.9,239.9,3102.0,245.6,895.2,1958.3,3112.2,230.4,55.6,7.9
0.162000,883.1,143.3,1963.9,252.7,3099.5,234.9,884.8,1960.2,3114.1,231.5,55.6,8
0.164000,876.1,136.7,1958.5,245.7,3099.3,201.9,875.5,1961.9,3115.7,232.5,55.6,8.2
0.166000,869.7,131.9,1956.5,215.3,3103.0,163.6,867.6,1963.2,3117.2,233.6,55.6,8.7
0.168000,863.7,128.5,1958.4,176.9,3110.8,135.4,861.3,1964.3,3118.3,234.5,55.6,9.4
0.170000,856.2,125.8,1962.8,143.2,3124.2,118.9,856.7,1965.1,3119.2,235.5,55.6,10.3
0.172000,847.8,124.2,1968.2,122.3,3142.2,111.9,853.9,1965.5,3119.7,236.4,55.5,11.2
0.174000,839.4,122.8,1974.7,109.4,3163.8,106.4,853,1965.7,3119.9,237.2,55.4,11.9
