time,f1,b1,f2,b2,f3,b3,f1p,f2p,f3p,f0,intensity,harmonicity
0.025989,648.8,157.1,1628.3,202.1,2984.5,266.8,722.7,1657.4,2988.3,272.4,67.6,14.4
0.027989,684.6,176.1,1637.4,199.9,2987.5,256.9,726.3,1658.1,2989.3,272.4,67.5,14.6
0.029989,720.9,181.7,1647.7,194.7,2990.5,232.4,732.1,1659.1,2990.8,272.4,67.5,14.8
0.031989,752.4,175.8,1658.3,190.3,2992.7,201.2,740.1,1660.4,2992.5,272.4,67.6,14.9
0.033989,777.3,165.4,1668.9,188.3,2993.7,172.9,750.2,1661.8,2994.1,272.4,67.7,15.1
0.035989,795.9,155.6,1678.3,187.5,2995.2,151.7,762.2,1663.2,2995,272.3,67.9,15.3
0.037989,809.3,148.5,1684.5,185.7,2998.7,136.8,775.9,1664.3,2995,272.2,68.1,15.6
0.039989,820.3,144.4,1686.4,180.7,3002.3,125.3,790.9,1665.1,2993.7,272.1,68.3,15.8
0.041989,830.7,143.0,1683.8,172.1,3002.0,119.0,807.2,1665.4,2990.6,272,68.5,16.1
0.043989,842.0,143.5,1677.3,162.9,2997.1,119.0,824.3,1665.1,2985.7,271.9,68.6,16.3
0.045989,853.0,146.6,1669.3,157.4,2990.1,126.0,841.9,1664.2,2978.8,271.7,68.7,16.6
0.047989,863.9,153.0,1662.2,155.2,2979.5,142.6,859.9,1662.8,2970,271.4,68.7,16.8
0.049989,875.4,162.5,1657.2,154.3,2960.5,170.4,877.8,1660.9,2959.4,271.2,68.7,17.1
0.051989,887.7,173.6,1653.7,153.5,2931.1,199.9,895.4,1658.7,2947.6,270.9,68.7,17.3
0.053989,900.9,184.2,1651.2,152.8,2900.6,216.6,912.4,1656.3,2934.8,270.5,68.7,17.5
0.055989,915.2,193.9,1649.2,154.5,2880.3,224.8,928.4,1654.1,2921.8,270.1,68.7,17.6
0.057989,928.8,202.4,1647.4,161.6,2872.7,238.0,943.4,1652.3,2909.1,269.7,68.6,17.5
0.059989,941.9,210.2,1645.8,174.0,2874.7,257.4,957,1651.2,2897.5,269.3,68.6,17.5
0.061989,955.0,215.2,1645.2,186.1,2884.4,264.5,969.2,1651.1,2887.6,268.7,68.6,17.4
0.063989,968.2,214.9,1646.6,190.5,2896.8,242.2,979.8,1652,2879.9,268.2,68.6,17.2
0.065989,980.2,209.5,1649.9,185.8,2907.1,203.9,988.7,1654.4,2875,267.6,68.6,17
0.067989,990.6,201.5,1654.4,178.4,2914.7,172.2,995.9,1658.1,2873.1,267,68.6,16.8
0.069989,999.5,193.2,1660.2,175.5,2919.7,155.9,1001.5,1663.4,2874.4,266.3,68.5,16.5
0.071989,1006.4,187.0,1667.2,179.3,2920.1,156.5,1005.4,1670,2878.9,265.6,68.5,16.2
0.073989,1010.9,182.9,1675.1,186.3,2915.6,168.8,1007.9,1677.9,2886.3,264.8,68.5,15.9
0.075989,1013.4,179.0,1683.5,191.3,2908.0,185.6,1008.9,1686.8,2896.2,264.1,68.4,15.6
0.077989,1014.8,173.2,1693.2,191.7,2901.0,201.3,1008.8,1696.5,2907.9,263.3,68.3,15.4
0.079989,1015.5,165.0,1705.6,188.3,2897.8,217.7,1007.5,1706.6,2920.9,262.4,68.3,15.2
0.081989,1015.3,156.4,1720.0,183.2,2900.5,239.1,1005.3,1716.7,2934.3,261.5,68.2,15
0.083989,1013.5,149.0,1734.5,176.1,2910.0,261.7,1002.4,1726.5,2947.3,260.7,68.1,14.7
0.085989,1009.9,140.6,1748.1,163.8,2925.8,273.6,998.8,1735.5,2959.2,259.7,68,14.3
0.087989,1005.0,130.2,1758.0,146.9,2942.3,267.1,994.7,1743.5,2969.3,258.8,67.8,13.8
0.089989,999.1,118.0,1764.1,128.7,2955.6,249.3,990.2,1750.2,2977.1,257.9,67.7,13.1
0.091989,992.5,107.0,1766.8,114.6,2964.9,232.7,985.3,1755.4,2982.2,256.9,67.5,12.6
0.093989,984.7,100.5,1767.4,107.7,2974.1,224.3,980.1,1758.9,2984.7,255.9,67.4,12.2
0.095989,975.5,98.7,1766.8,107.2,2986.1,220.7,974.4,1761,2984.4,255,67.2,12.2
0.097989,965.1,99.5,1764.0,109.4,2997.7,214.1,968.4,1761.6,2981.9,254,67.1,12.7
0.099989,954.4,99.7,1757.1,111.1,3001.8,211.2,961.8,1761,2977.7,253,66.9,13.3
0.101989,943.6,98.6,1745.6,111.9,2998.9,232.6,954.6,1759.6,2972.6,252,66.8,14
0.103989,933.5,99.7,1736.2,114.7,2998.1,285.1,946.8,1757.6,2967.5,251.1,66.7,14.6
0.105989,923.5,104.9,1733.4,122.0,3002.2,361.8,938.2,1755.7,2963.5,250.1,66.7,14.8
0.107989,913.1,113.1,1736.2,135.3,3001.6,438.9,928.7,1754.1,2961.5,249.1,66.6,14.7
0.109989,902.8,123.3,1741.5,156.0,2989.0,493.3,918.2,1753.5,2962.6,248.2,66.5,14.4
0.111989,893.4,135.0,1748.0,182.6,2972.6,530.0,906.7,1754.1,2967.7,247.3,66.4,14.2
0.113989,884.9,147.1,1754.8,208.6,2963.8,572.8,894.3,1756.4,2977.5,246.4,66.3,14.1
0.115989,876.1,157.2,1760.8,225.1,2962.3,628.7,880.9,1760.5,2992.5,245.5,66.2,14.4
0.117989,867.3,164.0,1766.7,228.7,2968.7,680.5,866.7,1766.7,3012.9,244.7,66.1,14.9
0.119989,857.8,170.4,1776.9,225.7,2988.9,745.6,851.8,1774.9,3038.5,243.9,66,15.5
0.121989,847.4,177.5,1793.7,218.3,3029.7,831.5,836.4,1785,3069,243.1,65.8,16.2
0.123989,836.8,183.4,1814.3,205.4,3102.6,883.5,820.8,1796.9,3103.6,242.3,65.7,16.9
0.125989,826.3,187.2,1833.6,188.6,3185.5,778.5,805.3,1810,3141.3,241.6,65.5,17.6
0.127989,815.8,193.0,1849.3,173.0,3203.1,615.7,790.1,1824,3180.8,240.9,65.4,18.3
0.129989,804.6,204.6,1861.2,160.8,3204.7,537.0,775.6,1838.3,3220.8,240.2,65.2,19
0.131989,791.3,219.8,1868.9,152.9,3219.1,564.2,762.2,1852.4,3259.6,239.6,65.1,19.7
0.133989,775.6,237.1,1873.4,153.0,3264.4,682.3,750.1,1865.6,3295.7,239,64.9,20.2
0.135989,756.7,261.3,1877.0,159.3,3345.8,795.5,739.8,1877.3,3327.7,238.4,64.8,20.5
0.137989,735.5,291.8,1878.7,167.7,3415.3,815.4,731.4,1887,3354.2,237.9,64.7,20.6
0.139989,711.3,324.9,1877.9,174.8,3426.8,780.1,725.3,1894.3,3373.9,237.4,64.5,20.5
0.141989,682.7,354.0,1875.4,177.8,3390.5,734.8,721.5,1898.8,3386.2,236.9,64.4,20.3
0.143989,650.4,370.5,1872.4,175.4,3340.8,698.1,720.3,1900.4,3390.3,236.5,64.3,20
