time,f1,b1,f2,b2,f3,b3,f1p,f2p,f3p,f0,intensity,harmonicity
0.026000,471.2,76.8,1890.7,139.2,2827.0,218.0,505,1981,2863.7,211,56.1,11.2
0.028000,477.2,84.4,1916.2,148.2,2838.4,224.5,506.2,1983.1,2865.2,211,56.4,12.1
0.030000,484.1,96.8,1942.8,148.4,2856.0,207.2,508.1,1986.6,2867.8,211.1,56.6,13.1
0.032000,492.6,110.4,1966.9,143.5,2870.3,179.0,510.8,1991.5,2871.3,211.2,56.6,14.1
0.034000,501.5,120.1,1988.5,139.9,2879.1,157.8,514.2,1997.6,2875.8,211.3,56.7,15.1
0.036000,511.5,127.1,2013.6,134.3,2887.7,138.5,518.3,2004.9,2881.1,211.4,56.6,16
0.038000,522.5,133.5,2040.4,122.0,2897.9,116.8,523,2013.4,2887.2,211.4,56.6,17
0.040000,533.5,139.5,2063.6,104.9,2908.2,95.0,528.3,2022.8,2894,211.5,56.6,18
0.042000,544.6,143.3,2082.3,86.9,2918.5,76.1,534.1,2033.2,2901.5,211.6,56.6,18.9
0.044000,554.4,143.2,2095.1,72.1,2927.1,63.0,540.3,2044.4,2909.4,211.7,56.6,19.6
0.046000,564.2,140.0,2104.3,59.6,2934.7,53.5,546.9,2056.2,2917.8,211.8,56.6,19.9
0.048000,573.1,135.4,2110.8,50.9,2941.0,47.8,553.8,2068.5,2926.4,211.9,56.6,19.8
0.050000,581.6,130.0,2116.5,45.5,2947.2,44.9,560.9,2081.3,2935.2,212,56.6,19.6
0.052000,589.2,124.5,2122.0,43.6,2953.3,44.9,568.2,2094.2,2944.2,212.2,56.6,19.2
0.054000,596.1,119.5,2127.3,44.0,2959.4,46.6,575.5,2107.4,2953,212.3,56.6,19
0.056000,603.1,114.6,2132.7,45.7,2965.7,49.2,582.8,2120.5,2961.8,212.4,56.6,19
0.058000,608.9,108.9,2137.7,48.2,2971.4,51.9,590,2133.4,2970.3,212.5,56.6,19.1
0.060000,613.2,101.4,2142.4,52.1,2976.6,55.5,597,2146.1,2978.5,212.6,56.6,19.3
0.062000,616.0,93.4,2147.0,57.8,2980.9,60.6,603.9,2158.4,2986.3,212.7,56.6,19.6
0.064000,618.7,87.2,2152.5,65.2,2985.0,66.8,610.4,2170.3,2993.7,212.9,56.5,19.9
0.066000,621.7,84.4,2159.6,72.9,2989.1,72.3,616.6,2181.5,3000.5,213,56.5,20.2
0.068000,624.8,83.8,2169.4,81.5,2994.2,78.8,622.4,2192.2,3006.7,213.1,56.4,20.6
0.070000,627.5,84.3,2181.0,90.3,3000.0,86.5,627.9,2202.1,3012.4,213.3,56.4,21
0.072000,629.7,85.3,2193.1,98.6,3005.5,95.0,632.8,2211.2,3017.3,213.4,56.3,21.5
0.074000,631.6,86.2,2205.3,107.8,3010.7,104.9,637.3,2219.5,3021.7,213.6,56.2,21.9
0.076000,633.1,87.0,2215.6,116.6,3015.0,115.2,641.3,2227,3025.4,213.7,56.2,22.3
0.078000,634.6,88.1,2223.5,123.5,3019.4,124.9,644.7,2233.7,3028.5,213.9,56.1,22.8
0.080000,636.2,90.1,2229.1,125.4,3023.8,130.9,647.7,2239.4,3031,214.1,56.1,23.3
0.082000,638.2,93.0,2234.5,123.9,3029.0,133.6,650.2,2244.4,3032.9,214.2,56,23.6
0.084000,640.0,95.4,2240.5,123.7,3034.9,137.4,652.2,2248.5,3034.3,214.4,55.9,23.8
0.086000,641.4,96.9,2247.0,126.9,3040.3,144.0,653.8,2251.8,3035.3,214.6,55.9,23.4
0.088000,642.7,98.5,2253.8,132.9,3044.1,152.0,654.9,2254.4,3035.8,214.8,55.8,22.5
0.090000,644.0,100.5,2259.2,139.3,3044.9,158.9,655.6,2256.3,3036.1,215,55.7,21.2
0.092000,645.2,103.2,2262.3,144.3,3043.0,165.1,656,2257.5,3036.1,215.2,55.7,20
0.094000,646.2,106.2,2262.8,146.7,3040.4,170.3,656,2258.1,3035.9,215.5,55.6,19.3
0.096000,647.2,109.5,2262.2,147.4,3038.9,174.1,655.8,2258.2,3035.7,215.7,55.6,19.4
0.098000,648.3,113.0,2262.3,147.8,3039.1,175.6,655.3,2257.8,3035.4,215.9,55.5,20.3
0.100000,649.5,116.7,2263.7,148.3,3039.9,176.3,654.7,2257,3035.2,216.2,55.5,21.7
0.102000,650.8,119.7,2265.2,148.6,3040.1,177.7,654,2255.9,3035.2,216.5,55.4,23.2
0.104000,651.8,122.1,2264.4,148.7,3039.7,180.1,653.1,2254.4,3035.3,216.7,55.3,24.2
0.106000,652.5,124.2,2260.5,149.2,3040.2,181.2,652.3,2252.8,3035.7,217,55.2,24.4
0.108000,653.1,126.1,2255.9,150.7,3041.9,178.9,651.4,2250.9,3036.4,217.3,55.1,24
0.110000,653.6,127.8,2253.0,153.9,3043.0,173.4,650.7,2248.9,3037.5,217.6,55.1,23.3
0.112000,654.0,128.9,2252.2,158.7,3042.1,166.5,650,2246.8,3039,217.9,55,22.4
0.114000,654.4,129.7,2250.6,163.5,3040.0,158.1,649.4,2244.7,3040.9,218.2,54.9,21.5
0.116000,654.7,130.2,2246.5,164.6,3039.0,148.4,649,2242.5,3043.3,218.5,54.9,20.8
0.118000,655.2,131.0,2241.7,161.6,3041.3,138.7,648.8,2240.2,3046.1,218.9,54.8,20
0.120000,656.0,132.2,2237.8,157.5,3047.3,128.4,648.8,2238,3049.4,219.2,54.8,19.1
0.122000,656.8,133.3,2234.9,155.5,3054.6,118.4,649,2235.7,3053.1,219.5,54.8,18.4
0.124000,657.4,133.9,2231.4,155.3,3061.4,108.3,649.5,2233.4,3057.2,219.9,54.8,17.9
0.126000,658.1,134.4,2227.8,156.0,3066.4,99.1,650.2,2231.1,3061.8,220.2,54.8,17.7
0.128000,659.2,136.1,2225.1,156.7,3070.4,90.3,651.1,2228.8,3066.6,220.6,54.8,17.9
0.130000,661.0,139.8,2223.8,155.8,3074.0,82.2,652.2,2226.4,3071.9,220.9,54.8,18.4
0.132000,663.1,143.7,2222.5,152.4,3077.6,75.9,653.5,2224,3077.3,221.3,54.8,18.9
0.134000,664.6,146.1,2219.5,146.3,3081.7,72.1,655.1,2221.5,3083,221.7,54.8,19.4
0.136000,665.3,146.3,2216.0,139.2,3086.0,70.8,656.8,2218.9,3088.9,222.1,54.8,19.8
0.138000,665.4,145.2,2213.0,132.3,3090.7,71.1,658.6,2216.2,3094.9,222.4,54.8,20.2
0.140000,665.2,144.0,2210.4,127.0,3094.9,72.5,660.6,2213.3,3101,222.8,54.8,20.5
0.142000,664.9,143.1,2207.5,123.5,3098.6,74.9,662.6,2210.4,3107,223.2,54.8,20.8
0.144000,664.8,143.2,2204.1,122.3,3102.1,78.2,664.7,2207.2,3113.1,223.6,54.8,21
0.146000,665.5,144.9,2200.4,122.8,3106.9,81.3,666.8,2204,3119,224,54.8,20.9
0.148000,666.8,147.6,2197.2,124.2,3113.8,82.2,669,2200.5,3124.8,224.5,54.9,20.7
0.150000,667.8,149.3,2194.5,124.9,3121.6,81.6,671,2196.9,3130.4,224.9,54.9,20.2
0.152000,667.9,148.9,2191.4,124.5,3129.4,80.9,673,2193.2,3135.8,225.3,55,19.8
0.154000,667.5,147.5,2188.3,122.8,3136.5,80.6,674.9,2189.4,3140.9,225.8,55,19.4
0.156000,667.5,147.1,2185.1,120.0,3143.3,79.4,676.7,2185.4,3145.8,226.2,55.1,19.1
0.158000,668.4,149.0,2182.4,116.2,3149.5,76.7,678.3,2181.4,3150.3,226.7,55.2,18.9
0.160000,670.4,152.8,2180.1,111.1,3155.2,72.7,679.7,2177.3,3154.6,227.2,55.3,18.8
0.162000,672.7,156.7,2177.9,106.0,3160.1,68.6,680.9,2173.2,3158.6,227.6,55.3,18.6
0.164000,674.5,158.7,2175.2,102.5,3164.3,65.7,681.8,2169.1,3162.3,228.2,55.3,18.5
0.166000,675.7,159.1,2171.6,100.9,3168.7,64.0,682.5,2165.2,3165.7,228.7,55.4,18.3
0.168000,676.5,159.6,2167.9,100.5,3173.1,63.3,683,2161.3,3168.8,229.2,55.4,18.1
0.170000,677.4,161.3,2163.9,99.7,3178.0,64.0,683.2,2157.6,3171.7,229.7,55.3,18
0.172000,677.9,163.2,2159.6,98.2,3183.1,66.4,683.1,2154.2,3174.4,230.3,55.3,17.7
0.174000,677.8,163.6,2154.3,96.7,3188.5,71.9,682.7,2151,3176.8,230.9,55.3,17.5
0.176000,677.0,161.8,2148.8,95.4,3193.6,81.4,682.1,2148.1,3179.1,231.5,55.2,17.1
0.178000,676.2,158.5,2143.4,93.5,3197.8,97.0,681.2,2145.5,3181.3,232.1,55.2,16.5
0.180000,675.7,154.7,2139.0,90.6,3200.7,118.6,680,2143.4,3183.3,232.7,55.2,15.8
0.182000,675.4,151.4,2135.6,86.8,3202.7,144.5,678.6,2141.7,3185.3,233.3,55.1,15.2
0.184000,675.2,148.5,2132.9,82.4,3204.6,176.0,677,2140.4,3187.2,234,55.1,14.7
0.186000,674.9,146.3,2131.2,78.1,3205.5,210.0,675.2,2139.6,3189.1,234.7,55.1,14.5
0.188000,674.2,144.6,2130.7,73.7,3203.1,245.1,673.1,2139.3,3191,235.3,55.1,14.5
0.190000,673.5,143.8,2131.5,69.2,3196.9,268.7,671,2139.5,3192.9,236,55.1,14.6
0.192000,672.9,144.4,2133.5,64.1,3190.0,274.6,668.6,2140.2,3194.9,236.7,55.1,14.8
0.194000,672.4,146.8,2136.3,58.6,3185.5,268.4,666.2,2141.4,3196.9,237.4,55.1,15
0.196000,671.9,150.5,2139.4,53.5,3183.8,262.6,663.6,2143,3199,238.2,55.1,15.1
0.198000,671.3,155.3,2143.2,48.7,3183.4,261.6,661,2145,3201.2,238.9,55.2,15.4
0.200000,670.6,160.7,2147.4,44.7,3183.6,264.1,658.4,2147.5,3203.4,239.6,55.2,15.6
0.202000,669.2,166.4,2152.5,41.4,3185.4,268.6,655.7,2150.2,3205.7,240.4,55.1,15.7
0.204000,666.7,171.2,2157.5,39.3,3189.0,273.3,653.1,2153.3,3208,241.1,55.1,15.7
0.206000,662.8,175.7,2162.8,38.6,3193.3,270.6,650.5,2156.6,3210.4,241.8,55,15.5
0.208000,658.4,179.9,2167.8,39.3,3196.4,251.3,647.9,2160.1,3212.7,242.6,54.9,14.9
0.210000,653.7,185.4,2172.9,41.8,3198.8,215.2,645.5,2163.7,3215.1,243.3,54.8,14.1
0.212000,649.7,193.8,2177.9,46.0,3201.4,174.1,643.1,2167.3,3217.4,244,54.6,13.4
0.214000,647.0,206.5,2182.9,52.0,3204.5,138.1,640.9,2170.9,3219.6,244.7,54.3,12.8
0.216000,645.8,225.3,2188.1,61.1,3208.8,108.6,638.9,2174.5,3221.8,245.4,54.1,12.4
0.218000,646.0,247.8,2193.0,74.3,3214.2,89.4,637,2177.8,3223.8,246.1,53.9,12.2
0.220000,646.3,273.1,2197.1,94.5,3221.5,78.6,635.3,2181,3225.6,246.8,53.7,12.1
0.222000,645.2,297.2,2199.4,119.1,3229.4,75.6,633.7,2183.8,3227.3,247.5,53.5,12.2
0.224000,641.7,320.4,2199.3,141.6,3237.6,77.7,632.4,2186.3,3228.8,248.1,53.4,12.5
0.226000,635.3,340.2,2195.8,152.1,3245.0,83.3,631.4,2188.5,3230,248.7,53.3,13.2
0.228000,626.1,355.0,2188.6,153.5,3250.5,90.8,630.5,2190.1,3231,249.3,53.2,14.3
0.230000,612.6,365.2,2176.8,152.7,3253.7,100.9,629.9,2191.4,3231.7,249.8,53.1,15.7
0.232000,595.3,368.8,2161.5,152.0,3254.8,113.6,629.5,2192.1,3232.1,250.4,53,17.1
0.234000,573.6,365.4,2143.0,149.6,3255.3,130.3,629.4,2192.4,3232.3,250.9,52.9,18.1
