time,f1,b1,f2,b2,f3,b3,f1p,f2p,f3p,f0,intensity,harmonicity
0.025989,523.5,66.4,981.4,166.9,3011.0,119.3,564,960.3,3036.4,213.4,55.3,14.7
0.027989,528.0,71.9,971.8,164.1,3005.0,123.7,564.1,960.6,3036.4,212.9,56,20
0.029989,533.6,83.6,961.3,164.0,3000.9,124.4,564.3,960.9,3036.5,212.4,56.4,15.8
0.031989,539.6,97.6,952.4,163.1,2999.9,122.8,564.6,961.4,3036.6,211.9,56.6,7.8
0.033989,546.0,108.7,946.5,160.5,3001.7,124.1,564.9,961.9,3036.7,211.4,56.5,1.6
0.035989,552.6,110.6,945.5,158.0,3006.2,131.1,565.3,962.6,3036.9,210.9,56.4,1.6
0.037989,559.9,105.0,949.7,158.1,3015.6,141.4,565.8,963.5,3037.1,210.3,56.3,4.2
0.039989,567.5,97.9,957.6,161.0,3030.0,145.5,566.4,964.3,3037.3,209.8,56.3,7.6
0.041989,575.2,91.2,967.4,165.0,3045.8,135.3,567,965.3,3037.6,209.2,56.3,11.4
0.043989,581.2,85.4,975.2,166.6,3055.7,116.5,567.7,966.3,3037.8,208.7,56.3,14.6
0.045989,585.0,79.8,978.8,164.9,3059.6,98.2,568.4,967.4,3038.1,208.1,56.4,16.8
0.047989,587.0,74.6,978.8,161.2,3060.6,83.1,569.3,968.5,3038.4,207.6,56.5,18.2
0.049989,588.2,69.5,977.4,157.1,3060.6,69.5,570.1,969.7,3038.7,207.1,56.6,19.3
0.051989,589.3,65.2,976.6,154.2,3060.2,58.7,571.1,970.8,3039,206.5,56.7,20.1
0.053989,590.5,61.8,977.1,152.9,3059.8,51.4,572.1,971.9,3039.4,206,56.8,21
0.055989,591.7,59.4,978.4,152.9,3059.4,48.1,573.1,973,3039.7,205.5,56.9,22.2
0.057989,592.6,57.7,979.2,153.8,3058.6,48.1,574.2,974,3040,205,57,23.6
0.059989,593.3,56.8,979.1,155.5,3057.4,50.0,575.4,974.9,3040.3,204.6,57.1,25.1
0.061989,593.9,56.3,978.6,157.8,3056.0,52.3,576.5,975.8,3040.7,204.1,57.2,26.3
0.063989,594.3,55.2,978.4,158.5,3055.1,55.6,577.7,976.6,3041,203.7,57.3,27.1
0.065989,594.1,52.8,978.4,156.0,3055.5,62.5,578.9,977.3,3041.4,203.3,57.3,27.2
0.067989,593.3,49.3,978.2,151.0,3057.6,75.5,580.2,977.9,3041.8,202.8,57.4,26.6
0.069989,592.3,45.9,977.7,146.9,3060.3,94.7,581.4,978.4,3042.1,202.5,57.5,25.5
0.071989,591.5,43.4,976.8,145.2,3062.2,112.8,582.7,978.8,3042.5,202.1,57.6,24.3
0.073989,590.7,41.6,974.7,144.7,3063.8,123.0,583.9,979.1,3043,201.7,57.7,23.3
0.075989,589.7,40.2,970.8,142.4,3066.5,125.9,585.1,979.3,3043.4,201.4,57.8,22.5
0.077989,588.4,38.5,965.6,136.7,3069.1,128.3,586.3,979.3,3043.9,201.1,57.9,21.8
0.079989,587.2,36.4,961.4,129.6,3069.6,131.2,587.5,979.3,3044.4,200.8,58,21.2
0.081989,586.5,33.6,960.0,124.3,3066.8,132.7,588.6,979.1,3045,200.5,58.2,20.8
0.083989,586.5,30.9,962.0,123.9,3060.2,132.8,589.7,978.9,3045.6,200.2,58.4,20.8
0.085989,586.8,28.9,966.0,127.5,3051.1,133.0,590.7,978.6,3046.3,200,58.5,21.4
0.087989,587.3,27.6,970.4,131.6,3041.0,132.8,591.7,978.3,3047,199.7,58.7,23
0.089989,587.8,26.8,973.9,132.5,3033.4,130.4,592.5,977.9,3047.8,199.5,58.8,24.9
0.091989,588.1,26.1,976.5,130.1,3029.8,125.5,593.4,977.5,3048.7,199.3,58.9,26.9
0.093989,588.2,25.5,978.5,126.4,3029.7,119.5,594.1,977.1,3049.7,199.1,59,28.5
0.095989,588.0,24.7,979.8,122.2,3031.6,112.7,594.7,976.7,3050.8,198.9,59.2,29.1
0.097989,587.5,23.7,980.3,118.0,3033.8,105.3,595.2,976.4,3052.1,198.8,59.3,29
0.099989,587.0,22.7,980.5,113.8,3035.5,98.1,595.7,976.1,3053.4,198.6,59.4,28.4
0.101989,586.6,21.8,980.8,109.4,3036.0,92.2,596,976,3054.8,198.5,59.6,27.7
0.103989,586.2,20.9,981.4,104.1,3034.9,88.1,596.3,975.9,3056.4,198.4,59.7,27.1
0.105989,585.8,20.1,982.3,98.5,3032.5,86.3,596.4,976,3058.1,198.3,59.8,27
0.107989,585.4,19.6,983.3,92.8,3030.0,86.5,596.4,976.2,3059.9,198.2,60,27.2
0.109989,585.2,19.2,984.6,87.1,3029.2,87.9,596.3,976.6,3061.9,198.1,60.1,27.5
0.111989,585.3,18.8,986.3,80.7,3030.6,89.8,596.1,977.2,3063.9,198,60.2,27.8
0.113989,585.7,18.6,988.3,73.9,3034.5,93.0,595.9,978,3066.2,198,60.4,27.9
0.115989,586.0,18.8,990.1,67.4,3040.8,99.2,595.5,979,3068.5,197.9,60.5,27.7
0.117989,586.1,19.3,990.9,61.7,3049.7,108.8,595,980.3,3071,197.9,60.6,27.2
0.119989,586.0,19.9,990.9,56.0,3062.2,119.5,594.5,981.9,3073.6,197.9,60.7,26.6
0.121989,586.1,20.0,991.0,50.6,3076.0,125.1,593.9,983.7,3076.3,197.8,60.9,25.9
0.123989,586.5,19.6,992.1,45.6,3087.6,124.3,593.2,985.8,3079.1,197.8,61,25.3
0.125989,587.3,18.9,994.2,41.5,3094.8,121.0,592.5,988.2,3082,197.8,61.2,24.8
0.127989,588.3,18.3,996.9,37.8,3098.3,118.4,591.7,990.8,3084.9,197.8,61.3,24.3
0.129989,589.5,18.0,999.8,34.8,3098.9,117.0,590.9,993.8,3087.9,197.8,61.4,23.8
0.131989,590.4,18.1,1002.2,32.7,3098.5,115.0,590.1,997,3091,197.8,61.5,23.5
0.133989,591.2,18.5,1004.3,31.2,3099.5,111.3,589.3,1000.5,3094.1,197.8,61.7,23.3
0.135989,591.9,19.1,1006.3,30.2,3102.7,106.5,588.5,1004.3,3097.3,197.8,61.8,23.3
0.137989,592.6,19.9,1008.4,29.8,3107.7,101.5,587.7,1008.3,3100.4,197.8,61.9,23.6
0.139989,593.4,20.6,1010.6,29.7,3112.9,97.3,587,1012.6,3103.5,197.8,62,24.1
0.141989,594.2,21.5,1013.1,30.2,3118.1,94.5,586.3,1017.1,3106.6,197.8,62.1,24.6
0.143989,595.0,22.4,1015.7,31.3,3122.5,94.4,585.7,1021.8,3109.6,197.8,62.1,25.1
0.145989,595.6,23.1,1018.3,33.2,3126.3,98.2,585.2,1026.7,3112.6,197.8,62.2,25.4
0.147989,595.9,23.6,1021.0,35.9,3129.9,106.7,584.8,1031.7,3115.4,197.8,62.2,25.7
0.149989,596.0,23.7,1023.8,39.5,3135.3,120.6,584.4,1036.9,3118.2,197.8,62.2,25.9
0.151989,596.0,23.4,1026.8,43.5,3143.9,135.8,584.2,1042.3,3120.8,197.8,62.2,26
0.153989,595.8,22.7,1030.3,47.8,3154.7,144.4,584.1,1047.7,3123.2,197.8,62.2,26.2
0.155989,595.6,22.0,1034.6,52.4,3161.8,143.3,584.1,1053.2,3125.5,197.8,62.2,26.2
0.157989,595.2,21.3,1040.5,58.1,3162.7,139.5,584.3,1058.7,3127.6,197.8,62.1,26.3
0.159989,594.8,20.8,1047.9,65.0,3160.1,138.4,584.6,1064.3,3129.5,197.8,62.1,26.2
0.161989,594.5,20.3,1056.4,72.6,3157.2,141.8,585,1069.9,3131.2,197.8,62.1,26.2
0.163989,594.4,20.1,1065.1,78.9,3153.8,149.8,585.6,1075.4,3132.7,197.8,62,26.2
0.165989,594.4,20.0,1074.3,83.1,3146.5,161.1,586.3,1080.9,3134,197.8,62,26.2
0.167989,594.2,19.9,1083.5,85.2,3134.9,168.1,587.2,1086.4,3135,197.9,61.9,26.2
0.169989,593.7,19.6,1093.0,86.8,3124.0,167.7,588.2,1091.7,3135.7,197.9,61.9,26.2
0.171989,593.2,19.1,1102.1,88.4,3117.6,163.6,589.3,1097,3136.3,197.9,61.9,26.3
0.173989,592.7,18.6,1111.1,89.1,3115.1,158.1,590.6,1102.1,3136.6,198,61.8,26.5
0.175989,592.5,18.4,1118.4,87.5,3115.2,152.5,591.9,1107,3136.6,198,61.7,27.1
0.177989,592.6,18.3,1123.9,84.5,3116.3,147.7,593.4,1111.9,3136.4,198.1,61.7,28.2
0.179989,592.8,18.4,1128.4,81.6,3117.3,144.5,594.9,1116.5,3136,198.2,61.6,29.5
0.181989,593.2,18.6,1133.0,79.5,3117.5,143.8,596.4,1121,3135.4,198.3,61.6,30.7
0.183989,593.6,18.8,1137.8,78.1,3116.2,147.0,598.1,1125.4,3134.5,198.4,61.6,31.6
0.185989,594.1,19.0,1142.4,77.0,3113.6,152.8,599.7,1129.6,3133.4,198.5,61.5,31.8
0.187989,594.6,19.2,1147.0,75.2,3110.0,159.9,601.4,1133.5,3132.2,198.7,61.5,31.4
0.189989,595.0,19.3,1151.0,72.6,3106.5,168.2,603,1137.4,3130.8,198.8,61.5,30.7
0.191989,595.5,19.3,1154.0,70.1,3103.4,180.8,604.6,1141,3129.2,199,61.5,29.8
0.193989,596.1,19.4,1156.0,68.6,3101.0,200.7,606.1,1144.6,3127.5,199.2,61.4,28.9
0.195989,596.7,19.4,1157.3,68.2,3099.3,232.6,607.6,1147.9,3125.7,199.4,61.4,28.2
0.197989,597.3,19.3,1157.8,68.5,3099.0,277.3,608.9,1151.1,3123.8,199.6,61.4,27.5
0.199989,597.8,19.1,1158.0,68.9,3101.6,335.2,610.2,1154.3,3121.9,199.8,61.3,26.8
0.201989,598.3,19.0,1157.8,69.3,3107.9,401.3,611.2,1157.2,3119.9,200.1,61.2,26.1
0.203989,598.9,18.8,1157.7,69.9,3119.3,476.3,612.1,1160.2,3117.8,200.3,61.1,25.4
0.205989,599.5,18.9,1158.0,70.9,3133.7,549.9,612.8,1163,3115.8,200.6,61,24.7
0.207989,600.3,19.4,1158.8,72.8,3144.2,609.0,613.3,1165.7,3113.8,200.8,60.9,24.1
0.209989,601.2,20.1,1160.2,75.6,3145.1,632.1,613.6,1168.4,3111.9,201.1,60.8,23.4
0.211989,602.3,21.1,1162.2,78.9,3137.3,615.1,613.7,1171.1,3110,201.4,60.6,22.9
0.213989,603.4,22.4,1164.4,82.5,3125.6,571.0,613.5,1173.8,3108.2,201.7,60.4,22.4
0.215989,604.6,24.0,1167.0,86.1,3115.0,517.4,613,1176.4,3106.5,201.9,60.2,22.2
0.217989,605.8,25.9,1169.7,89.6,3108.5,464.4,612.2,1179.1,3104.9,202.2,59.9,22.1
0.219989,606.8,28.2,1172.9,93.4,3104.8,408.6,611.2,1181.8,3103.5,202.5,59.6,22.1
0.221989,607.8,31.0,1176.5,96.9,3101.6,353.2,609.9,1184.5,3102.2,202.8,59.3,22.2
0.223989,608.8,34.1,1180.7,99.9,3097.3,299.8,608.4,1187.3,3101,203.1,59,22.3
0.225989,609.8,37.7,1185.3,102.2,3093.5,252.1,606.5,1190.1,3100.1,203.3,58.6,22.3
0.227989,610.7,41.9,1190.5,104.5,3092.1,208.9,604.4,1193,3099.3,203.6,58.2,22.3
0.229989,611.2,46.5,1195.6,107.2,3094.0,176.5,602.1,1196,3098.7,203.9,57.8,22.3
0.231989,611.1,51.3,1200.0,109.8,3097.5,156.6,599.5,1199,3098.3,204.1,57.4,22.2
0.233989,610.2,56.7,1204.0,111.1,3101.5,145.0,596.6,1202.1,3098,204.4,57,22.2
0.235989,608.6,62.6,1207.3,110.5,3105.1,139.2,593.6,1205.2,3098,204.6,56.6,22.2
0.237989,606.1,69.1,1209.6,109.0,3107.7,135.2,590.3,1208.4,3098.1,204.8,56.2,22.1
0.239989,603.1,75.8,1211.8,107.5,3109.1,130.4,586.9,1211.6,3098.4,205,55.8,22.1
0.241989,599.6,83.4,1214.9,105.9,3109.3,124.6,583.3,1214.9,3098.8,205.2,55.4,22.1
0.243989,595.7,91.2,1219.1,103.4,3109.1,119.3,579.6,1218.2,3099.4,205.4,55.1,22.2
0.245989,591.6,99.0,1223.9,100.4,3109.6,115.1,575.9,1221.5,3100.1,205.5,54.8,22.3
0.247989,587.5,106.0,1228.1,97.8,3111.0,111.5,572,1224.8,3100.9,205.7,54.6,22.6
0.249989,582.6,112.4,1231.8,96.1,3112.9,107.4,568.1,1228.1,3101.9,205.8,54.4,23
0.251989,577.4,117.3,1234.5,94.8,3114.0,102.9,564.2,1231.4,3102.9,206,54.2,23.3
0.253989,572.1,120.6,1236.6,92.9,3114.3,98.7,560.4,1234.5,3104,206.1,54,23.7
0.255989,567.4,122.9,1238.7,89.6,3114.2,95.6,556.6,1237.6,3105.2,206.2,53.9,24.1
0.257989,563.0,125.0,1241.1,84.7,3113.8,93.6,552.9,1240.7,3106.3,206.2,53.8,24.6
0.259989,558.7,127.1,1243.5,79.9,3113.4,92.2,549.3,1243.5,3107.5,206.3,53.7,25.1
0.261989,553.7,129.2,1245.4,76.6,3112.9,90.9,545.9,1246.3,3108.7,206.4,53.6,25.6
0.263989,548.4,131.0,1247.1,74.9,3112.1,89.2,542.6,1248.9,3109.8,206.4,53.5,25.9
0.265989,542.6,132.5,1249.2,73.9,3111.0,86.5,539.6,1251.3,3110.9,206.4,53.5,25.9
0.267989,536.4,133.8,1251.6,73.6,3109.7,83.0,536.8,1253.5,3112,206.5,53.4,25.7
0.269989,529.9,134.9,1254.2,73.9,3108.8,79.9,534.3,1255.5,3112.9,206.5,53.3,25.3
0.271989,523.6,135.6,1256.6,74.9,3108.4,79.0,532.1,1257.3,3113.8,206.5,53.3,24.9
0.273989,517.7,136.1,1258.8,76.1,3108.0,81.4,530.1,1258.8,3114.6,206.5,53.2,24.4
0.275989,512.9,136.3,1260.5,76.9,3107.1,86.6,528.5,1260.1,3115.2,206.5,53.1,24.1
0.277989,509.1,136.7,1261.9,77.0,3105.3,91.8,527.3,1261.1,3115.7,206.5,53,23.9
0.279989,505.8,137.1,1263.1,76.4,3102.3,93.7,526.4,1261.8,3116.1,206.4,52.8,23.7
0.281989,502.0,137.1,1264.7,75.3,3097.4,90.5,525.8,1262.2,3116.3,206.4,52.7,23.4
0.283989,497.3,135.9,1266.5,74.4,3091.5,84.1,525.6,1262.3,3116.3,206.4,52.6,23.2
