time,f1,b1,f2,b2,f3,b3,f1p,f2p,f3p,f0,intensity,harmonicity
0.025000,518.3,138.3,1107.8,628.2,2562.9,123.9,535.2,1151.8,2573.5,187.2,63.5,5.7
0.027000,525.3,108.9,1130.3,501.8,2573.9,103.8,536.8,1152.5,2576,187.2,65.2,18.9
0.029000,535.5,91.9,1152.3,446.0,2583.7,90.7,539.4,1153.6,2580.1,187.2,66.7,20.6
0.031000,545.8,81.1,1169.2,404.4,2587.6,78.4,543.1,1154.9,2585.4,187.2,68,15.8
0.033000,555.3,76.0,1180.9,376.0,2590.9,68.8,547.8,1156.3,2591.9,187.1,69.1,9.5
0.035000,563.7,75.1,1186.2,355.2,2597.6,63.1,553.4,1157.5,2599.1,187.1,69.9,6.7
0.037000,570.7,77.3,1183.5,336.6,2607.3,61.7,560,1158.4,2606.7,187.1,70.6,7.6
0.039000,576.6,81.1,1173.9,312.4,2617.0,63.3,567.4,1158.8,2614.4,187.1,71,8.8
0.041000,581.7,86.3,1161.7,284.5,2624.9,65.6,575.6,1158.6,2622,187.1,71.3,10.2
0.043000,586.8,95.0,1151.3,260.0,2632.5,67.2,584.5,1157.6,2629,187.1,71.4,11.4
0.045000,592.2,107.1,1144.7,245.4,2639.6,67.9,593.9,1155.8,2635.3,187.1,71.3,12.4
0.047000,598.8,124.0,1141.1,244.6,2645.0,67.6,603.6,1153.3,2640.7,187.1,71.1,12.9
0.049000,608.4,149.2,1139.8,264.7,2648.4,65.5,613.5,1150.2,2645.1,187.1,70.8,13.2
0.051000,621.9,183.0,1138.1,303.2,2650.4,62.1,623.4,1146.8,2648.5,187.1,70.5,13.4
0.053000,635.9,210.3,1135.4,335.3,2650.6,58.1,633.1,1143.2,2651,187.2,70.2,13.7
0.055000,646.5,219.3,1133.5,341.4,2649.9,53.8,642.4,1139.7,2652.7,187.2,70,14.2
0.057000,653.0,210.3,1133.8,321.7,2649.4,50.0,651.2,1136.8,2653.7,187.2,69.9,15.2
0.059000,657.3,193.8,1135.9,292.8,2649.8,47.0,659.2,1134.7,2654.2,187.2,69.8,16.5
0.061000,661.6,176.7,1138.9,266.3,2650.7,44.8,666.5,1133.8,2654.4,187.2,69.8,17.9
0.063000,666.4,163.0,1142.3,249.7,2651.6,43.7,672.8,1134.3,2654.5,187.2,69.8,19.2
0.065000,671.9,153.5,1145.5,244.6,2652.6,43.6,678.3,1136.6,2654.8,187.2,69.8,20
0.067000,677.5,148.4,1148.0,249.8,2654.0,43.6,682.8,1140.6,2655.2,187.2,69.7,20.5
0.069000,683.2,145.4,1150.7,260.9,2655.7,42.5,686.5,1146.5,2656.1,187.1,69.7,20.6
0.071000,688.4,141.1,1154.9,270.5,2656.9,39.7,689.5,1154.3,2657.3,187.1,69.7,20.6
0.073000,692.3,132.5,1161.8,270.0,2657.9,36.2,691.8,1163.8,2658.9,187.1,69.7,20.5
0.075000,694.8,121.9,1170.8,260.7,2660.2,33.9,693.7,1174.8,2661,187,69.7,20.6
0.077000,697.4,112.9,1181.7,253.9,2664.2,33.4,695.2,1187,2663.3,186.9,69.7,20.8
0.079000,700.4,107.4,1194.3,257.4,2668.6,34.7,696.5,1200,2665.9,186.8,69.7,21
0.081000,703.5,104.1,1209.0,271.4,2671.5,37.1,697.8,1213.5,2668.7,186.7,69.7,21.3
0.083000,706.5,102.8,1225.2,291.8,2673.4,39.2,699,1227,2671.4,186.6,69.6,21.6
0.085000,709.4,102.4,1243.5,311.0,2676.2,40.6,700.3,1240.2,2674.2,186.5,69.6,21.7
0.087000,710.6,100.1,1260.4,311.9,2680.4,42.2,701.6,1252.6,2677,186.3,69.6,21.8
0.089000,708.8,93.5,1271.5,284.1,2684.9,45.4,702.9,1263.9,2679.7,186.1,69.6,21.8
0.091000,705.2,85.0,1277.0,245.6,2688.4,50.7,704,1274,2682.4,185.9,69.5,21.8
0.093000,701.6,77.6,1281.0,214.3,2690.7,57.9,704.8,1282.5,2685.3,185.7,69.4,21.7
0.095000,698.7,73.1,1284.7,196.9,2691.7,66.4,705.2,1289.5,2688.5,185.5,69.2,21.4
0.097000,696.1,71.7,1288.7,193.1,2691.7,75.5,704.7,1295,2692.1,185.2,69,21
0.099000,693.7,73.1,1293.2,200.3,2692.2,84.3,703.3,1298.9,2696.5,185,68.8,20.5
0.101000,691.5,77.2,1298.6,215.4,2695.8,94.3,700.7,1301.5,2701.7,184.7,68.6,19.9
0.103000,688.9,82.8,1303.8,233.5,2702.3,104.7,696.7,1302.9,2708.1,184.4,68.3,19.2
0.105000,685.1,86.5,1306.9,246.1,2708.3,112.9,691.2,1303.5,2715.7,184,68,18.5
0.107000,679.5,85.5,1306.5,248.8,2711.0,117.9,684,1303.3,2724.7,183.7,67.7,17.7
0.109000,672.3,81.0,1303.3,249.5,2713.2,124.7,675.2,1302.8,2735.1,183.3,67.3,16.7
0.111000,664.1,76.3,1300.2,258.9,2722.3,141.2,664.8,1302.1,2746.9,183,67,15.7
0.113000,655.9,74.0,1300.7,281.6,2746.6,169.5,653.1,1301.5,2759.9,182.6,66.6,14.8
0.115000,647.0,73.5,1304.4,312.9,2787.1,195.7,640.2,1301,2773.9,182.2,66.3,14.3
0.117000,637.0,74.4,1307.3,346.8,2824.9,194.8,626.6,1300.8,2788.6,181.9,65.9,14.2
0.119000,625.4,78.4,1308.2,395.3,2845.5,171.2,612.5,1300.9,2803.6,181.5,65.6,14.5
0.121000,613.8,85.8,1308.4,470.6,2852.5,150.0,598.6,1301.3,2818.4,181.1,65.3,15
0.123000,601.1,92.1,1305.7,563.1,2852.3,138.5,585.1,1301.9,2832.6,180.7,65.1,15.2
0.125000,585.6,90.5,1292.2,617.3,2846.0,134.6,572.7,1302.8,2845.7,180.4,65,15.1
0.127000,567.6,80.3,1277.5,608.8,2839.0,133.8,561.8,1303.7,2857.2,180,64.8,14.4
0.129000,551.4,67.8,1280.2,577.0,2841.1,135.9,552.9,1304.5,2866.6,179.7,64.7,13.3
0.131000,537.5,56.6,1297.9,543.4,2853.3,141.8,546.2,1305.2,2873.7,179.3,64.6,12
0.133000,525.8,48.1,1319.2,517.6,2869.6,149.5,542.1,1305.7,2878,179,64.3,10.7
0.135000,514.9,42.8,1336.9,514.9,2880.3,156.7,540.7,1305.8,2879.5,178.7,63.9,9.5
