time,f1,b1,f2,b2,f3,b3,f1p,f2p,f3p,f0,intensity,harmonicity
0.026011,508.8,115.5,1477.3,137.6,2087.2,260.3,515.6,1504.6,2073.6,211.4,56.1,5.5
0.028011,514.5,119.8,1488.6,132.1,2095.5,225.3,517.1,1507.6,2076.2,211.3,56.2,8
0.030011,520.2,125.1,1499.0,131.0,2099.7,199.6,519.5,1512.4,2080.4,211.2,56.3,11.2
0.032011,524.6,130.4,1508.3,134.4,2100.6,186.4,522.7,1519.1,2086.2,211.1,56.3,14.5
0.034011,528.4,135.0,1517.7,141.7,2100.2,181.0,526.7,1527.4,2093.2,211,56.4,17.2
0.036011,532.3,138.6,1528.8,152.8,2099.7,180.4,531.4,1537.2,2101.4,210.8,56.5,19.1
0.038011,536.9,141.2,1543.1,166.9,2100.0,183.9,536.7,1548.3,2110.5,210.7,56.6,20.3
0.040011,541.9,143.4,1561.8,181.3,2101.8,192.2,542.5,1560.4,2120.3,210.5,56.6,21.1
0.042011,547.6,145.6,1585.7,191.5,2106.6,205.6,548.6,1573.4,2130.4,210.4,56.7,21.5
0.044011,553.8,148.4,1610.7,191.0,2115.3,219.2,554.8,1587,2140.6,210.2,56.8,21.8
0.046011,561.4,151.3,1633.9,179.0,2128.0,228.1,561.2,1600.9,2150.7,210,56.9,21.7
0.048011,569.3,151.8,1652.0,161.7,2141.3,234.4,567.4,1615,2160.4,209.9,57,21.3
0.050011,576.3,148.1,1664.4,146.1,2153.2,245.5,573.5,1629.1,2169.6,209.7,57.1,20.5
0.052011,582.3,141.5,1672.8,133.1,2165.6,263.9,579.2,1642.8,2178,209.5,57.2,19.6
0.054011,588.5,133.5,1678.5,120.4,2181.7,283.5,584.5,1656.2,2185.5,209.3,57.4,19
0.056011,593.7,125.5,1681.5,108.9,2200.0,291.9,589.2,1669,2192.2,209.2,57.6,18.8
0.058011,597.5,117.3,1682.9,100.0,2216.6,285.2,593.4,1681.1,2197.9,209,57.9,18.8
0.060011,599.2,109.3,1683.9,95.5,2226.8,268.4,597,1692.6,2202.7,208.8,58.1,19
0.062011,599.3,102.3,1685.3,95.8,2230.6,251.2,599.9,1703.3,2206.8,208.6,58.3,19.4
0.064011,598.9,97.2,1687.9,99.7,2230.7,240.4,602.1,1713.3,2210.2,208.4,58.4,19.8
0.066011,598.6,94.3,1692.3,106.3,2229.4,237.6,603.7,1722.6,2213.2,208.2,58.5,20.2
0.068011,598.9,93.3,1698.8,114.1,2228.3,240.4,604.6,1731.3,2216.1,208.1,58.6,20.9
0.070011,599.6,93.4,1708.0,122.8,2227.7,244.2,605,1739.5,2219,207.9,58.6,21.6
0.072011,600.3,93.7,1719.6,131.3,2227.6,245.9,604.8,1747.3,2222.3,207.7,58.7,22.4
0.074011,600.9,94.0,1733.4,138.5,2227.3,244.6,604.2,1754.9,2226.4,207.5,58.7,23
0.076011,601.5,94.3,1750.0,143.9,2227.5,242.3,603.2,1762.3,2231.5,207.4,58.6,23.5
0.078011,602.1,94.1,1767.6,146.7,2229.6,242.9,601.9,1769.7,2238,207.2,58.6,24
0.080011,602.4,93.1,1785.3,147.2,2234.6,249.6,600.4,1777.4,2246.1,207,58.6,24.4
0.082011,602.1,91.7,1801.1,144.4,2242.6,259.3,598.9,1785.3,2256.1,206.9,58.6,24.7
0.084011,601.5,90.3,1813.9,137.6,2253.5,265.3,597.3,1793.6,2268.3,206.7,58.6,24.8
0.086011,600.4,89.5,1824.5,128.8,2268.6,267.2,595.8,1802.3,2282.9,206.5,58.6,24.6
0.088011,598.2,88.5,1834.5,122.7,2290.1,273.2,594.4,1811.6,2299.9,206.4,58.5,24.2
0.090011,594.9,86.5,1843.0,123.0,2314.1,288.0,593.2,1821.5,2319.4,206.3,58.5,23.7
0.092011,591.6,83.6,1849.8,128.0,2337.3,307.3,592.2,1831.9,2341.5,206.1,58.5,23
0.094011,589.4,81.1,1854.9,134.2,2359.7,323.5,591.4,1842.9,2366,206,58.4,22.5
0.096011,588.6,80.4,1859.1,139.2,2386.4,329.2,591,1854.3,2393,205.8,58.3,22.2
0.098011,589.3,82.0,1863.7,142.8,2419.6,315.6,590.8,1866.2,2422.1,205.7,58.3,21.9
0.100011,591.1,85.3,1870.3,148.0,2456.5,285.6,590.8,1878.3,2453.2,205.6,58.2,21.7
0.102011,592.6,88.5,1879.4,157.9,2490.6,262.8,591,1890.6,2486.1,205.5,58.1,21.6
0.104011,592.8,90.6,1891.4,172.6,2524.3,259.0,591.4,1902.8,2520.3,205.4,58,21.5
0.106011,591.8,91.5,1905.2,187.9,2558.5,272.8,591.8,1914.9,2555.6,205.3,57.9,21.6
0.108011,590.6,91.9,1919.6,198.8,2592.4,296.9,592.2,1926.6,2591.5,205.2,57.9,21.8
0.110011,590.2,92.4,1934.3,202.8,2627.9,326.1,592.6,1937.9,2627.8,205.1,57.8,22.1
0.112011,590.7,93.6,1949.4,198.6,2671.3,356.6,592.8,1948.5,2664,205,57.7,22.4
0.114011,591.5,95.0,1961.7,186.9,2718.2,374.2,592.8,1958.3,2699.8,204.9,57.6,22.7
0.116011,591.9,95.8,1970.3,172.8,2762.1,375.3,592.5,1967.2,2734.8,204.9,57.5,22.9
0.118011,591.2,95.5,1976.5,162.3,2798.9,369.7,591.7,1975,2768.7,204.8,57.4,23.1
0.120011,589.6,94.7,1981.6,156.4,2830.3,362.2,590.5,1981.7,2801.3,204.8,57.3,23.3
0.122011,587.9,94.5,1985.8,151.5,2855.6,346.4,588.7,1987.3,2832.3,204.8,57.2,23.4
0.124011,586.3,95.6,1988.6,145.2,2872.7,323.9,586.3,1991.7,2861.5,204.8,57.1,23.4
0.126011,584.5,97.5,1990.0,139.6,2882.7,307.6,583.3,1994.9,2888.7,204.8,56.9,23.3
0.128011,582.0,100.2,1990.6,135.4,2890.9,299.3,579.6,1997,2914,204.8,56.7,22.9
0.130011,578.7,103.6,1991.0,133.1,2900.3,296.0,575.2,1998,2937.1,204.8,56.4,22.4
0.132011,574.5,107.8,1991.0,132.7,2911.3,295.1,570.1,1998,2958.3,204.9,56.1,21.8
0.134011,569.7,113.0,1990.7,133.0,2923.3,296.0,564.4,1997.2,2977.4,204.9,55.8,21.2
0.136011,563.6,120.1,1991.2,133.6,2938.6,302.8,558,1995.7,2994.6,205,55.4,20.6
0.138011,556.0,129.0,1993.4,134.8,2960.7,319.8,550.9,1993.7,3010.1,205.1,55,20.1
0.140011,546.4,140.1,1997.2,135.9,2995.1,346.6,543.4,1991.2,3023.9,205.2,54.6,19.5
0.142011,535.2,153.9,2000.5,135.5,3042.1,373.1,535.3,1988.4,3036.2,205.4,54.3,18.9
0.144011,523.3,169.7,2001.1,134.8,3091.3,385.5,526.9,1985.5,3047.3,205.5,53.9,18.3
0.146011,509.7,184.7,1998.3,139.6,3128.5,387.2,518.1,1982.7,3057.2,205.6,53.6,17.7
0.148011,496.1,193.2,1993.6,154.5,3142.1,384.5,509,1980,3066.2,205.8,53.3,17
0.150011,484.3,195.3,1987.6,178.3,3135.2,367.6,499.8,1977.6,3074.5,206,53.1,16.2
0.152011,475.5,193.3,1979.1,204.2,3118.5,330.6,490.6,1975.5,3082.1,206.1,52.9,15.6
0.154011,469.1,190.3,1968.1,223.4,3103.6,285.4,481.4,1973.9,3089.2,206.3,52.7,15.3
0.156011,465.3,191.2,1958.6,230.2,3093.9,244.5,472.3,1972.8,3096,206.5,52.5,15.4
0.158011,465.4,201.3,1956.2,223.2,3086.8,209.5,463.4,1972.1,3102.5,206.6,52.3,16.1
0.160011,466.7,213.6,1960.3,212.7,3082.4,187.9,454.9,1971.9,3108.7,206.8,52.2,17.2
0.162011,464.4,219.0,1966.2,204.1,3081.2,176.4,446.7,1972.2,3114.6,207,52,18.2
0.164011,457.2,214.8,1971.8,196.7,3083.8,169.4,439,1972.8,3120.4,207.1,51.8,18.9
0.166011,447.5,202.9,1976.4,193.5,3091.5,165.7,431.8,1973.8,3125.8,207.3,51.6,19.1
0.168011,438.5,189.7,1980.1,197.3,3103.7,166.1,425.3,1975,3131,207.5,51.3,19.1
0.170011,430.8,180.5,1981.8,210.9,3118.0,173.0,419.3,1976.4,3135.8,207.6,51.1,18.8
0.172011,423.3,177.7,1979.0,233.9,3131.5,189.0,414.1,1977.9,3140.1,207.8,50.8,18.3
0.174011,414.6,178.8,1972.7,264.0,3145.5,215.7,409.6,1979.3,3144,207.9,50.5,17.5
0.176011,406.2,185.1,1969.8,290.8,3159.0,243.3,405.9,1980.6,3147.2,208,50,16.3
0.178011,399.9,201.8,1978.2,304.4,3165.1,256.7,403,1981.7,3149.8,208.1,49.5,14.5
0.180011,393.8,221.4,1990.7,329.2,3166.0,280.6,400.9,1982.5,3151.8,208.2,49,12.4
0.182011,383.4,231.8,1992.8,411.4,3168.6,385.1,399.6,1983,3152.9,208.3,48.4,10.3
0.184011,372.0,251.3,1985.0,526.7,3170.7,621.4,399.2,1983.2,3153.3,208.4,47.9,8.7
